1,2,3,4,5,6,7,8,9,10,11,12,13,14,15,16,17,18,19,20,21,22,23,24,25,26,27,28,29,30,31,32,33,34,35,36,37,38,39,40,41,42,43,44,45,46,47,48,49,50,51,52,53,54,55,56,57,58,59,60,61,62,63,64,65,66,67,68,69,70,71,72,73,74,75,76,77,78,79,80,81,82,83,84,85,86,87,88,89,90,91,92,93,94,95,96,97,98,99,100,101,102,103,104,105,106,107,108,109,110,111,112,113,114,115,116,117,118,119,120,121,122,123,124,125,126,127,128,129,130,131,132,133,134,135,136,137,138,139,140,141,142,143,144,145,146,147,148,149,150,151,152,153,154,155,156,157,158,159,160,161,162,163,164,165,166,167,168,169,170,171,172,173,174,175,176,177,178,179,180,181,182,183,184,185,186,187,188,189,190,191,192,193,194,195,196,197,198,199,200,201,202,203,204,205,206,207,208,209,210,211,212,213,214,215,216,217,218,219,220,221,222,223,224,225,226,227,228,229,230,231,232,233,234,235,236,237,238,239,240,241,242,243,244,245,246,247,248,249,250,251,252,253,254,255,256,257,258,259,260,261,262,263,264,265,266,267,268,269,270,271,272,273,274,275,276,277,278,279,280,281,282,283,284,285,286,287,288,289,290,291,292,293,294,295,296,297,298,299,300,301,302,303,304,305,306,307,308,309,310,311,312,313,314,315,316,317,318,319,320,321,322,323,324,325,326,327,328,329,330,331,332,333,334,335,336,337,338,339,340,341,342,343,344,345,346,347,348,349,350,351,352,353,354,355,356,357,358,359,360,361,362,363,364,365,366,367,368,369,370,371,372,373,374,375,376,377,378,379,380,381,382,383,384,385,386,387,388,389,390,391,392,393,394,395,396,397,398,399,400,401,402,403,404,405,406,407,408,409,410,411,412,413,414,415,416,417,418,419,420,421,422,423,424,425,426,427,428,429,430,431,432,433,434,435,436,437,438,439,440,441,442,443,444,445,446,447,448,449,450,451,452,453,454,455,456,457,458,459,460,461,462,463,464,465,466,467,468,469,470,471,472,473,474,475,476,477,478,479,480,481,482,483,484,485,486,487,488,489,490,491,492,493,494,495,496,497,498,499,500,501,502,503,504,505,506,507,508,509,510,511,512,513,514,515,516,517,518,519,520,521,522,523,524,525,526,527,528,529,530,531,532,533,534,535,536,537,538,539,540,541,542,543,544,545,546,547,548,549,550,551,552,553,554,555,556,557,558,559,560,561,562,563,564,565,566,567,568,569,570,571,572,573,574,575,576,577,578,579,580,581,582,583,584,585,586,587,588,589,590,591,592,593,594,595,596,597,598,599,600,601,602,603,604,605,606,607,608,609,610,611,612,613,614,615,616,617,618,619,620,621,622,623,624,625,626,627,628,629,630,631,632,633,634,635,636,637,638,639,640,641,642,643,644,645,646,647,648,649,650,651,652,653,654,655,656,657,658,659,660,661,662,663,664,665,666,667,668,669,670,671,672,673,674,675,676,677,678,679,680,681,682,683,684,685,686,687,688,689,690,691,692,693,694,695,696,697,698,699,700,701,702,703,704,705,706,707,708,709,710,711,712,713,714,715,716,717,718,719,720,721,722,723,724,725,726,727,728,729,730,731,732,733,734,735,736,737,738,739,740,741,742,743,744,745,746,747,748,749,750,751,752,753,754,755,756,757,758,759,760,761,762,763,764,765,766,767,768,769,770,771,772,773,774,775,776,777,778,779,780,781,782,783,784,785,786,787,788,789,790,791,792,793,794,795,796,797,798,799,800,801,802,803,804,805,806,807,808,809,810,811,812,813,814,815,816,817,818,819,820,821,822,823,824,825,826,827,828,829,830,831,832,833,834,835,836,837,838,839,840,841,842,843,844,845,846,847,848,849,850,851,852,853,854,855,856,857,858,859,860,861,862,863,864,865,866,867,868,869,870,871,872,873,874,875,876,877,878,879,880,881,882,883,884,885,886,887,888,889,890,891,892,893,894,895,896,897,898,899,900,901,902,903,904,905,906,907,908,909,910,911,912,913,914,915,916,917,918,919,920,921,922,923,924,925,926,927,928,929,930,931,932,933,934,935,936,937,938,939,940,941,942,943,944,945,946,947,948,949,950,951,952,953,954,955,956,957,958,959,960,961,962,963,964,965,966,967,968,969,970,971,972,973,974,975,976,977,978,979,980,981,982,983,984,985,986,987,988,989,990,991,992,993,994,995,996,997,998,999,1000,1001,1002,1003,1004,1005,1006,1007,1008,1009,1010,1011,1012,1013,1014,1015,1016,1017,1018,1019,1020,1021,1022,1023,1024,1025,1026,1027,1028,1029,1030,1031,1032,1033,1034,1035,1036,1037,1038,1039,1040,1041,1042,1043,1044,1045,1046,1047,1048,1049,1050,1051,1052,1053,1054,1055,1056,1057,1058,1059,1060,1061,1062,1063,1064,1065,1066,1067,1068,1069,1070,1071,1072,1073,1074,1075,1076,1077,1078,1079,1080,1081,1082,1083,1084,1085,1086,1087,1088,1089,1090,1091,1092,1093,1094,1095,1096,1097,1098,1099,1100,1101,1102,1103,1104,1105,1106,1107,1108,1109,1110,1111,1112,1113,1114,1115,1116,1117,1118,1119,1120,1121,1122,1123,1124,1125,1126,1127,1128,1129,1130,1131,1132,1133,1134,1135,1136,1137,1138,1139,1140,1141,1142,1143,1144,1145,1146,1147,1148,1149,1150,1151,1152,1153,1154,1155,1156,1157,1158,1159,1160,1161,1162,1163,1164,1165,1166,1167,1168,1169,1170,1171,1172,1173,1174,1175,1176,1177,1178,1179,1180,1181,1182,1183,1184,1185,1186,1187,1188,1189,1190,1191,1192,1193,1194,1195,1196,1197,1198,1199,1200,1201,1202,1203,1204,1205,1206,1207,1208,1209,1210,1211,1212,1213,1214,1215,1216,1217,1218,1219,1220,1221,1222,1223,1224,1225,1226,1227,1228,1229,1230,1231,1232,1233,1234,1235,1236,1237,1238,1239,1240,1241,1242,1243,1244,1245,1246,1247,1248,1249,1250,1251,1252,1253,1254,1255,1256,1257,1258,1259,1260,1261,1262,1263,1264,1265,1266,1267,1268,1269,1270,1271,1272,1273,1274,1275,1276,1277,1278,1279,1280,1281,1282,1283,1284,1285,1286,1287,1288,1289,1290,1291,1292,1293,1294,1295,1296,1297,1298,1299,1300,1301,1302,1303,1304,1305,1306,1307,1308,1309,1310,1311,1312,1313,1314,1315,1316,1317,1318,1319,1320,1321,1322,1323,1324,1325,1326,1327,1328,1329,1330,1331,1332,1333,1334,1335,1336,1337,1338,1339,1340,1341,1342,1343,1344,1345,1346,1347,1348,1349,1350,1351,1352,1353,1354,1355,1356,1357,1358,1359,1360,1361,1362,1363,1364,1365,1366,1367,1368,1369,1370,1371,1372,1373,1374,1375,1376,1377,1378,1379,1380,1381,1382,1383,1384,1385,1386,1387,1388,1389,1390,1391,1392,1393,1394,1395,1396,1397,1398,1399,1400,1401,1402,1403,1404,1405,1406,1407,1408,1409,1410,1411,1412,1413,1414,1415,1416,1417,1418,1419,1420,1421,1422,1423,1424,1425,1426,1427,1428,1429,1430,1431,1432,1433,1434,1435,1436,1437,1438,1439,1440,1441,1442,1443,1444,1445,1446,1447,1448,1449,1450,1451,1452,1453,1454,1455,1456,1457,1458,1459,1460,1461,1462,1463,1464,1465,1466,1467,1468,1469,1470,1471,1472,1473,1474,1475,1476,1477,1478,1479,1480,1481,1482,1483,1484,1485,1486,1487,1488,1489,1490,1491,1492,1493,1494,1495,1496,1497,1498,1499,1500,1501,1502,1503,1504,1505,1506,1507,1508,1509,1510,1511,1512,1513,1514,1515,1516,1517,1518,1519,1520,1521,1522,1523,1524,1525,1526,1527,1528,1529,1530,1531,1532,1533,1534,1535,1536,1537,1538,1539,1540,1541,1542,1543,1544,1545,1546,1547,1548,1549,1550,1551,1552,1553,1554,1555,1556,1557,1558,1559,1560,1561,1562,1563,1564,1565,1566,1567,1568,1569,1570,1571,1572,1573,1574,1575,1576,1577,1578,1579,1580,1581,1582,1583,1584,1585,1586,1587,1588,1589,1590,1591,1592,1593,1594,1595,1596,1597,1598,1599,1600,1601,1602,1603,1604,1605,1606,1607,1608,1609,1610,1611,1612,1613,1614,1615,1616,1617,1618,1619,1620,1621,1622,1623,1624,1625,1626,1627,1628,1629,1630,1631,1632,1633,1634,1635,1636,1637,1638,1639,1640,1641,1642,1643,1644,1645,1646,1647,1648,1649,1650,1651,1652,1653,1654,1655,1656,1657,1658,1659,1660,1661,1662,1663,1664,1665,1666,1667,1668,1669,1670,1671,1672,1673,1674,1675,1676,1677,1678,1679,1680,1681,1682,1683,1684,1685,1686,1687,1688,1689,1690,1691,1692,1693,1694,1695,1696,1697,1698,1699,1700,1701,1702,1703,1704,1705,1706,1707,1708,1709,1710,1711,1712,1713,1714,1715,1716,1717,1718,1719,1720,1721,1722,1723,1724,1725,1726,1727,1728,1729,1730,1731,1732,1733,1734,1735,1736,1737,1738,1739,1740,1741,1742,1743,1744,1745,1746,1747,1748,1749,1750,1751,1752,1753,1754,1755,1756,1757,1758,1759,1760,1761,1762,1763,1764,1765,1766,1767,1768,1769,1770,1771,1772,1773,1774,1775,1776,1777,1778,1779,1780,1781,1782,1783,1784,1785,1786,1787,1788,1789,1790,1791,1792,1793,1794,1795,1796,1797,1798,1799,1800,1801,1802,1803,1804,1805,1806,1807,1808,1809,1810,1811,1812,1813,1814,1815,1816,1817,1818,1819,1820,1821,1822,1823,1824,1825,1826,1827,1828,1829,1830,1831,1832,1833,1834,1835,1836,1837,1838,1839,1840,1841,1842,1843,1844,1845,1846,1847,1848,1849,1850,1851,1852,1853,1854,1855,1856,1857,1858,1859,1860,1861,1862,1863,1864,1865,1866,1867,1868,1869,1870,1871,1872,1873,1874,1875,1876,1877,1878,1879,1880,1881,1882,1883,1884,1885,1886,1887,1888,1889,1890,1891,1892,1893,1894,1895,1896,1897,1898,1899,1900,1901,1902,1903,1904,1905,1906,1907,1908,1909,1910,1911,1912,1913,1914,1915,1916,1917,1918,1919,1920,1921,1922,1923,1924,1925,1926,1927,1928,1929,1930,1931,1932,1933,1934,1935,1936,1937,1938,1939,1940,1941,1942,1943,1944,1945,1946,1947,1948,1949,1950,1951,1952,1953,1954,1955,1956,1957,1958,1959,1960,1961,1962,1963,1964,1965,1966,1967,1968,1969,1970,1971,1972,1973,1974,1975,1976,1977,1978,1979,1980,1981,1982,1983,1984,1985,1986,1987,1988,1989,1990,1991,1992,1993,1994,1995,1996,1997,1998,1999,2000,2001,2002,2003,2004,2005,2006,2007,2008,2009,2010,2011,2012,2013,2014,2015,2016,2017,2018,2019,2020,2021,2022,2023,2024,2025,2026,2027,2028,2029,2030,2031,2032,2033,2034,2035,2036,2037,2038,2039,2040,2041,2042,2043,2044,2045,2046,2047,2048,2049,2050,2051,2052,2053,2054,2055,2056,2057,2058,2059,2060,2061,2062,2063,2064,2065,2066,2067,2068,2069,2070,2071,2072,2073,2074,2075,2076,2077,2078,2079,2080,2081,2082,2083,2084,2085,2086,2087,2088,2089,2090,2091,2092,2093,2094,2095,2096,2097,2098,2099,2100,2101,2102,2103,2104,2105,2106,2107,2108,2109,2110,2111,2112,2113,2114,2115,2116,2117,2118,2119,2120,2121,2122,2123,2124,2125,2126,2127,2128,2129,2130,2131,2132,2133,2134,2135,2136,2137,2138,2139,2140,2141,2142,2143,2144,2145,2146,2147,2148,2149,2150,2151,2152,2153,2154,2155,2156,2157,2158,2159,2160,2161,2162,2163,2164,2165,2166,2167,2168,2169,2170,2171,2172,2173,2174,2175,2176,2177,2178,2179,2180,2181,2182,2183,2184,2185,2186,2187,2188,2189,2190,2191,2192,2193,2194,2195,2196,2197,2198,2199,2200,2201,2202,2203,2204,2205,2206,2207,2208,2209,2210,2211,2212,2213,2214,2215,2216,2217,2218,2219,2220,2221,2222,2223,2224,2225,2226,2227,2228,2229,2230,2231,2232,2233,2234,2235,2236,2237,2238,2239,2240,2241,2242,2243,2244,2245,2246,2247,2248,2249,2250,2251,2252,2253,2254,2255,2256,2257,2258,2259,2260,2261,2262,2263,2264,2265,2266,2267,2268,2269,2270,2271,2272,2273,2274,2275,2276,2277,2278,2279,2280,2281,2282,2283,2284,2285,2286,2287,2288,2289,2290,2291,2292,2293,2294,2295,2296,2297,2298,2299,2300,2301,2302,2303,2304,2305,2306,2307,2308,2309,2310,2311,2312,2313,2314,2315,2316,2317,2318,2319,2320,2321,2322,2323,2324,2325,2326,2327,2328,2329,2330,2331,2332,2333,2334,2335,2336,2337,2338,2339,2340,2341,2342,2343,2344,2345,2346,2347,2348,2349,2350,2351,2352,2353,2354,2355,2356,2357,2358,2359,2360,2361,2362,2363,2364,2365,2366,2367,2368,2369,2370,2371,2372,2373,2374,2375,2376,2377,2378,2379,2380,2381,2382,2383,2384,2385,2386,2387,2388,2389,2390,2391,2392,2393,2394,2395,2396,2397,2398,2399,2400,2401,2402,2403,2404,2405,2406,2407,2408,2409,2410,2411,2412,2413,2414,2415,2416,2417,2418,2419,2420,2421,2422,2423,2424,2425,2426,2427,2428,2429,2430,2431,2432,2433,2434,2435,2436,2437,2438,2439,2440,2441,2442,2443,2444,2445,2446,2447,2448,2449,2450,2451,2452,2453,2454,2455,2456,2457,2458,2459,2460,2461,2462,2463,2464,2465,2466,2467,2468,2469,2470,2471,2472,2473,2474,2475,2476,2477,2478,2479,2480,2481,2482,2483,2484,2485,2486,2487,2488,2489,2490,2491,2492,2493,2494,2495,2496,2497,2498,2499,2500,2501,2502,2503,2504,2505,2506,2507,2508,2509,2510,2511,2512,2513,2514,2515,2516,2517,2518,2519,2520,2521,2522,2523,2524,2525,2526,2527,2528,2529,2530,2531,2532,2533,2534,2535,2536,2537,2538,2539,2540,2541,2542,2543,2544,2545,2546,2547,2548,2549,2550,2551,2552,2553,2554,2555,2556,2557,2558,2559,2560,2561,2562,2563,2564,2565,2566,2567,2568,2569,2570,2571,2572,2573,2574,2575,2576,2577,2578,2579,2580,2581,2582,2583,2584,2585,2586,2587,2588,2589,2590,2591,2592,2593,2594,2595,2596,2597,2598,2599,2600,2601,2602,2603,2604,2605,2606,2607,2608,2609,2610,2611,2612,2613,2614,2615,2616,2617,2618,2619,2620,2621,2622,2623,2624,2625,2626,2627,2628,2629,2630,2631,2632,2633,2634,2635,2636,2637,2638,2639,2640,2641,2642,2643,2644,2645,2646,2647,2648,2649,2650,2651,2652,2653,2654,2655,2656,2657,2658,2659,2660,2661,2662,2663,2664,2665,2666,2667,2668,2669,2670,2671,2672,2673,2674,2675,2676,2677,2678,2679,2680,2681,2682,2683,2684,2685,2686,2687,2688,2689,2690,2691,2692,2693,2694,2695,2696,2697,2698,2699,2700,2701,2702,2703,2704,2705,2706,2707,2708,2709,2710,2711,2712,2713,2714,2715,2716,2717,2718,2719,2720,2721,2722,2723,2724,2725,2726,2727,2728,2729,2730,2731,2732,2733,2734,2735,2736,2737,2738,2739,2740,2741,2742,2743,2744,2745,2746,2747,2748,2749,2750,2751,2752,2753,2754,2755,2756,2757,2758,2759,2760,2761,2762,2763,2764,2765,2766,2767,2768,2769,2770,2771,2772,2773,2774,2775,2776,2777,2778,2779,2780,2781,2782,2783,2784,2785,2786,2787,2788,2789,2790,2791,2792,2793,2794,2795,2796,2797,2798,2799,2800,2801,2802,2803,2804,2805,2806,2807,2808,2809,2810,2811,2812,2813,2814,2815,2816,2817,2818,2819,2820,2821,2822,2823,2824,2825,2826,2827,2828,2829,2830,2831,2832,2833,2834,2835,2836,2837,2838,2839,2840,2841,2842,2843,2844,2845,2846,2847,2848,2849,2850,2851,2852,2853,2854,2855,2856,2857,2858,2859,2860,2861,2862,2863,2864,2865,2866,2867,2868,2869,2870,2871,2872,2873,2874,2875,2876,2877,2878,2879,2880,2881,2882,2883,2884,2885,2886,2887,2888,2889,2890,2891,2892,2893,2894,2895,2896,2897,2898,2899,2900,2901,2902,2903,2904,2905,2906,2907,2908,2909,2910,2911,2912,2913,2914,2915,2916,2917,2918,2919,2920,2921,2922,2923,2924,2925,2926,2927,2928,2929,2930,2931,2932,2933,2934,2935,2936,2937,2938,2939,2940,2941,2942,2943,2944,2945,2946,2947,2948,2949,2950,2951,2952,2953,2954,2955,2956,2957,2958,2959,2960,2961,2962,2963,2964,2965,2966,2967,2968,2969,2970,2971,2972,2973,2974,2975,2976,2977,2978,2979,2980,2981,2982,2983,2984,2985,2986,2987,2988,2989,2990,2991,2992,2993,2994,2995,2996,2997,2998,2999,3000
59,60,60,61,61,61,61,61,61,62,62,62,63,62,63,62,63,62,62,62,62,62,62,62,62,62,62,62,62,61,61,61,61,61,61,61,62,62,62,62,63,63,63,64,64,64,64,64,64,65,65,64,65,64,65,64,64,64,64,64,64,64,63,64,63,63,63,63,63,63,63,63,63,63,63,63,62,63,63,63,63,63,63,63,63,63,63,63,63,62,62,62,62,62,62,62,62,61,62,61,61,61,62,61,62,61,61,61,62,61,61,62,84,85,85,84,85,85,85,84,85,85,85,85,85,85,85,84,85,84,84,85,85,85,86,86,86,86,87,87,87,86,87,87,87,86,86,87,86,87,86,87,87,87,87,88,88,89,89,89,90,90,91,91,91,92,92,92,93,94,94,95,96,98,99,100,102,103,105,107,109,111,113,115,116,117,118,119,120,120,120,121,121,122,123,124,125,126,127,127,127,127,126,126,126,125,125,125,125,125,125,125,125,125,125,125,126,126,125,125,125,124,124,124,125,125,127,128,130,132,133,135,136,137,137,137,137,137,136,137,137,138,138,138,138,137,138,137,138,139,139,140,141,141,142,142,142,142,142,142,142,141,141,141,141,140,141,141,142,142,142,143,143,144,144,144,145,145,145,145,145,145,144,144,143,143,143,143,142,142,142,142,142,142,141,141,141,141,141,140,140,140,140,139,139,138,138,138,137,137,137,137,136,135,135,135,135,135,134,134,134,134,133,134,133,133,133,133,133,132,132,131,132,131,130,130,131,131,131,133,134,135,135,137,137,138,139,139,139,139,139,139,138,138,138,138,138,138,137,137,137,137,138,139,141,143,144,146,147,147,148,148,147,148,148,150,151,152,153,154,154,155,156,156,157,157,156,156,157,158,158,159,159,160,160,160,160,160,160,160,159,158,158,158,157,157,157,157,157,157,158,158,159,159,160,159,159,160,159,159,160,160,161,161,162,164,165,166,167,168,170,170,169,169,169,170,171,172,173,174,175,175,176,176,176,175,175,175,175,175,175,175,175,175,175,174,174,173,173,173,173,173,174,175,176,178,179,180,182,184,185,186,187,187,187,186,185,185,186,185,186,187,188,188,189,191,193,195,198,200,202,205,207,209,212,213,215,216,217,217,217,217,216,216,215,215,216,217,217,217,218,218,226,228,229,230,231,231,231,230,231,232,234,236,239,241,243,245,248,249,250,251,251,252,251,251,251,251,253,254,256,257,259,260,262,263,263,263,262,261,262,262,263,263,264,265,266,265,266,265,265,265,264,263,263,263,263,263,264,264,265,265,265,264,263,262,261,260,260,259,258,258,256,256,256,255,255,255,256,256,256,257,257,256,256,255,255,254,253,252,252,251,250,249,249,248,247,247,248,249,251,252,254,255,256,257,258,258,258,258,258,257,256,256,255,254,254,253,252,251,250,250,249,249,249,249,248,248,247,247,251,253,254,256,258,259,260,262,264,265,267,268,269,269,270,271,271,272,272,273,272,272,271,270,270,270,270,270,270,270,271,271,271,270,270,269,268,268,268,269,269,269,269,269,268,268,267,266,265,264,263,262,261,260,260,259,258,258,257,256,255,255,254,253,252,252,251,250,250,250,249,249,249,249,249,249,250,250,250,250,249,249,247,247,245,246,245,244,244,245,246,247,249,250,251,253,254,255,255,255,254,254,254,255,255,256,258,259,260,261,262,262,263,263,264,265,266,266,266,266,266,265,266,266,266,267,267,268,266,265,264,263,263,262,261,261,261,260,259,259,258,259,259,261,262,265,267,268,271,273,274,276,277,278,278,277,276,276,275,274,272,272,271,271,271,271,272,272,273,274,274,274,274,273,272,273,273,273,274,276,278,279,281,283,284,286,288,289,291,292,293,294,294,294,295,296,297,298,299,300,300,301,302,301,302,302,301,301,302,302,302,302,302,301,300,299,299,299,299,299,298,299,299,299,300,300,300,301,301,301,301,302,302,302,302,302,303,303,303,303,303,303,304,304,304,304,304,304,305,305,305,305,306,306,305,305,303,303,303,303,304,305,306,307,308,309,310,311,311,310,311,311,310,311,311,311,311,311,311,312,312,312,312,312,312,312,312,311,310,309,309,308,308,308,308,308,308,307,307,307,307,307,307,307,306,306,306,306,305,305,304,303,302,301,301,301,301,300,300,299,298,298,296,295,295,294,292,292,291,290,288,288,287,287,287,288,289,290,291,291,292,292,293,294,294,295,296,296,296,297,297,297,297,297,297,298,298,298,298,299,299,299,300,300,300,300,300,300,299,299,299,298,297,297,296,295,294,294,293,292,292,291,291,290,300,302,304,305,306,308,309,310,311,311,312,313,314,314,315,315,315,316,315,315,316,316,315,315,315,314,314,313,312,311,311,311,310,311,312,313,314,315,316,317,318,318,318,317,316,316,316,316,318,319,320,322,324,326,328,330,333,334,337,339,340,342,343,345,346,347,347,347,348,348,348,347,346,346,346,345,345,345,345,345,345,346,346,347,347,347,348,348,348,348,349,349,348,348,347,347,346,346,345,345,345,344,344,343,343,343,342,342,342,341,340,339,338,337,336,335,334,333,332,331,330,329,328,327,328,328,327,328,325,325,324,323,322,321,320,319,319,318,317,316,314,314,313,312,312,312,312,312,313,315,316,317,318,319,321,321,322,323,324,326,326,327,327,328,328,328,328,329,329,329,329,329,330,330,330,330,331,330,330,331,332,332,333,333,334,335,336,336,337,338,337,337,336,335,335,335,336,338,340,342,344,346,348,348,349,349,348,347,346,346,345,345,345,345,345,346,346,347,348,349,350,350,351,353,354,356,357,358,359,359,360,361,362,362,363,363,364,364,365,365,366,366,366,367,367,368,369,370,371,371,372,373,374,375,375,376,372,370,369,368,367,366,365,364,363,363,362,362,361,361,360,360,360,360,359,359,359,358,357,357,356,355,355,355,355,355,355,355,355,356,356,356,357,357,356,355,355,355,355,355,356,356,356,355,355,354,352,352,351,351,351,350,350,350,350,350,350,350,349,349,349,349,348,348,349,349,349,349,348,348,347,346,345,345,344,344,343,343,343,342,342,341,341,341,341,341,341,341,341,341,341,341,340,340,339,340,339,339,339,340,340,340,339,340,339,340,339,340,340,340,340,340,340,340,339,339,339,339,339,339,338,338,337,337,327,327,326,325,324,323,322,322,321,320,319,318,317,317,316,315,314,314,313,312,311,311,310,309,308,306,306,305,304,303,301,301,300,299,298,297,296,295,294,294,293,292,291,290,290,289,289,289,289,289,289,289,289,289,288,288,288,288,287,287,286,286,285,284,283,282,281,281,279,279,278,277,276,275,275,274,273,272,271,270,269,268,267,267,265,265,264,264,264,263,263,263,262,261,260,260,260,259,258,257,256,256,256,255,256,256,255,256,256,256,256,256,256,257,256,256,256,256,255,255,254,255,254,253,253,252,251,250,243,243,242,241,241,240,240,239,238,237,236,236,235,235,234,234,233,232,232,232,231,231,230,229,229,228,227,227,226,227,226,227,227,227,227,227,227,227,227,227,226,226,226,226,226,226,225,225,225,224,224,224,223,223,222,222,222,222,221,221,220,220,220,219,219,218,218,217,217,217,216,216,215,215,215,214,214,213,212,212,211,211,211,210,209,208,208,207,207,206,206,206,205,204,204,204,204,203,202,202,202,202,200,200,200,199,198,198,198,197,197,197,196,196,196,196,196,196,196,195,194,194,194,193,193,192,192,191,186,185,184,184,183,183,183,182,181,181,181,180,180,179,179,179,178,178,178,178,177,177,176,176,176,176,175,175,175,175,175,175,175,175,175,175,175,175,175,175,175,175,175,175,175,174,174,174,173,173,173,172,172,171,171,171,170,170,170,169,168,168,167,167,167,167,167,167,166,166,166,165,165,164,164,164,163,163,163,163,163,163,163,163,163,163,163,163,163,162,163,163,163,163,163,163,163,163,163,163,163,164,164,164,164,164,164,164,163,164,163,163,162,162,162,162,161,161,161,160,160,160,159,159,158,158,158,157,155,154,154,153,153,153,153,152,151,151,151,150,149,149,148,149,149,148,150,148,148,148,149,149,148,149,149,149,149,149,149,148,149,148,148,148,147,147,147,146,146,146,145,145,144,144,144,144,143,143,142,142,142,142,141,141,141,140,140,140,139,139,139,138,138,138,138,137,137,136,136,136,136,135,135,135,134,134,134,134,133,133,133,133,132,132,132,132,131,131,130,130,130,130,129,129,129,129,129,128,128,128,128,128,128,128,128,128,128,128,127,127,127,127,127,126,126,126,126,125,125,124,124,124,123,123,123,123,120,120,119,119,119,118,119,118,118,118,118,119,119,119,119,120,119,119,118,118,118,118,118,118,118,118,118,117,117,117,117,117,116,116,116,116,115,115,115,114,114,114,114,113,113,113,112,112,112,112,112,112,112,112,112,113,112,112,112,112,111,111,111,111,110,110,110,110,110,109,109,109,108,108,108,108,107,107,107,107,106,106,106,106,106,106,106,105,105,105,105,105,105,104,105,104,104,104,104,103,103,103,102,102,102,102,101,101,101,101,100,100,99,100,99,99,99,99,99,99,99,99,98,98,98,98,97,98,97,97,97,97,97,96,96,96,96,96,95,95,95,96,95,95,94,94,94,94,94,94,93,94,94,94,95,95,95,95,95,95,95,95,95,94,94,94,94,94,94,94,93,94,93,94,94,94,94,94,93,93,93,93,93,92,93,92,92,92,91,91,91,91,91,91,91,91,91,91,91,91,91,91,91,91,92,91,91,91,91,91,91,91,91,91,91,91,90,91,90,90,90,90,90,90,89,89,89,90,89,88,88,88,88,88,88,88,88,88,88,89,88,88,88,88,88,88,88,88,88,89,89,89,89,89,88,89,89,89,89,89,89,88,88,88,88,88,88,88,88,88,87,88,88,88,87,87,88,87,87,87,87,87,87,87,86,87,86,86,86,86,86,85,85,85,85,85,85,85,85,86,86,87,87,87,88,88,88,88,88,89,89,89,90,90,90,90,90,90,89,89,89,89,89,88,89,88,88,89,88,88,88,88,88,87,87,87,87,87,87,86,87,86,86,86,85,86,85,85,85,85,85,86,86,86,87,87,87,87,88,88,88,89,90,89,89,89,89,89,89,90,90,90,90,89,89,89,89,89,88,89,89,89,89,88,88,88,88,87,88,87,88,88,88,87,87,87,87,87,87,86,87,86,86,86,86,85,86,85,85,85,85,85,85,85,85,84,84,84,84,84,84,84,84,84,84,84,84,85,85,85,86,86,86,86,86,86,87,87,87,87,88,88,88,88,88,88,88,88,88,89,88,88,88,88,88,88,88,88,88,89,89,89,89,88,89,89,89,89,89,89,89,88,88,88,87,87,87,87,87,87,87,87,87,87,87,87,88,88,88,88,88,88,88,89,89,90,90,90,91,91,91,91,90,91,91,91,91,92,91,91,91,90,91,91,91,91,91,91,91,92,92,92,91,92,92,92,92,92,92,91,91,92,91,91,92,91,91,91,90,91,90,91,90,90,91,90,90,90,90,90,90,90,90,91,91,91,91,91,92,92,92,92,93,93,93,93,93,93,93,94,94,94,95,95,95,95,95,95,95,95,96,95,96,95,95,95,95,95,95,95,95,96,95,96,95,95,95,95,95,95,95,95,95,95,94,95,94,95,94,95,94,94,94,93,94,94,94,94,94,94,95,94,95,96,96,96,97,97,98,98,99,100,100,101,101,102,102,103,103,104,105,106,108,107,107,107,107,107,107,107,106,107,107,106,106,106,106,106,105,105,105,105,105,105,105,105,105,105,105,105,105,105,106,106,106,107,107,107,107,108,108,108,109,109,110,110,110,111,111,112,112,112,113,113,113,114,114,114,115,114,115,115,115,115,115,115,115,115,115,115,115,115,114,115,115,115,115,115,115,115,115,115,115,115,115,115,115,114,115,114,114,115,115,115,114,114,115,115,115,115,115,115,115,116,116,116,117,117,118,118,119,119,120,121,121,121,122,123,124,123,125,125,126,126,126,127,127,127,127,127,127,127,126,126,127,126,126,126,125,125,126,126,126,126,125,125,125,124,124,124,123,124,124,124,124,124,124,124,124,125,125,125,125,126,126,126,127,127,127,127,127,128,128,128,128,128,129,129,129,129,130,129,129,129,130,130,130,129,129,130,129,130,129,129,129,129,129,130,129,129,129,129,129,129,128,128,128,128,128,127,127,127,127,126,126,126,126,126,125,125,125,125,125,125,125,125,124,124,124,124,123,124,124,124,124,124,124,124,124,124,124,124,124,123,124,124,124,123,123,123,123,123,123,123,123,122,122,122,124,124,124,125,125,125,125,125,125,125,125,125,125,125,125,125,125,125,125,125,125,125,125,126,126,126,126,127,127,128,128,128,129,129,130,130,130,131,131,131,132,132,133,133,133,133,134,134,134,134,134,134,134,136,135,135,135,135,135,135,136,135,136,136,136,136,136,136,136,135,136,135,135,135,135,135,135,135,134,134,134,134,134,134,134,135,134,135,135,135,135,136,136,136,137,137,137,137,137,138,138,138,138,139,140,140,140,141,141,141,141,141,141,141,141,141,141,140,140,141,140,140,140,140,140,139,139,139,138,137,137,137,137,137,137,136,136,136,136,136,136,136,136,136,136,136,136,136,136,136,136,137,137,138,138,139,138,139,139,139,140,140,140,141,141,141,142,142,142,143,143,144,143,144,144,144,144,144,144,144,144,144
77,77,77,77,77,77,77,77,77,78,78,78,78,78,78,78,78,78,78,78,78,78,78,77,77,77,77,77,77,77,77,77,77,77,77,77,77,77,77,77,76,76,76,76,76,75,76,76,75,75,74,75,75,74,75,75,75,75,75,75,75,75,75,75,75,75,74,74,75,75,76,75,75,76,76,75,75,75,75,74,75,74,74,74,74,74,75,74,74,74,74,73,74,74,75,74,83,82,83,82,82,82,82,82,82,81,81,81,81,81,81,80,80,80,80,79,80,79,79,79,79,79,78,79,78,78,78,78,78,78,78,78,77,77,77,77,76,77,76,76,76,76,76,76,75,75,76,75,75,74,75,75,74,74,74,74,74,74,74,74,74,74,74,74,74,74,74,74,74,74,73,74,73,73,73,73,73,72,73,73,73,73,73,73,72,72,72,72,72,72,72,72,71,72,72,72,72,71,71,71,71,71,70,71,71,70,70,70,70,70,70,70,70,69,69,69,69,69,69,69,69,69,69,69,69,69,69,69,69,69,69,69,69,69,69,69,69,69,69,69,69,69,69,69,69,68,69,69,69,68,68,69,68,68,68,68,68,68,68,68,68,68,68,67,68,68,67,73,73,74,74,74,74,74,74,74,74,75,75,76,76,76,77,77,77,77,77,77,76,77,77,78,77,78,77,77,77,77,77,77,77,77,77,76,77,77,77,77,77,77,77,77,76,77,77,76,76,76,77,76,77,77,77,77,77,77,76,76,76,76,76,76,76,76,76,77,77,77,77,77,77,77,77,77,77,76,76,77,77,77,77,77,77,77,78,77,78,78,78,78,79,79,79,79,78,79,78,78,78,78,78,78,78,78,78,77,78,78,78,78,78,78,78,78,78,78,77,77,77,77,77,78,78,78,78,78,79,79,80,81,81,81,81,82,81,82,81,81,81,81,81,81,80,80,80,80,80,80,80,80,79,80,79,79,79,79,79,79,79,79,79,80,79,79,79,79,79,78,79,79,79,79,79,79,79,79,79,78,79,79,78,78,78,78,78,78,78,78,78,77,77,77,77,77,77,77,76,76,76,76,76,76,76,76,77,76,76,76,77,77,77,77,77,77,77,78,78,78,79,79,78,79,79,79,79,78,78,78,78,78,78,78,78,78,78,79,78,78,78,77,77,77,78,77,77,77,77,77,77,77,77,77,77,77,76,77,77,76,76,76,76,76,76,75,76,75,76,75,75,75,75,76,76,75,76,76,76,75,75,75,75,75,75,75,75,75,75,75,75,75,75,75,74,74,75,75,74,75,74,74,74,74,74,74,75,75,75,75,76,75,75,76,75,76,76,76,76,76,76,76,76,76,76,76,76,76,77,76,76,76,75,75,76,75,76,75,76,76,76,76,76,76,77,77,78,77,78,79,79,79,79,79,79,79,79,79,79,79,79,79,80,79,79,79,79,79,79,79,79,78,79,78,79,78,79,78,78,78,78,78,78,78,78,78,78,78,78,79,79,79,79,79,79,79,79,78,79,78,78,78,78,78,78,78,78,78,78,78,78,79,79,80,80,81,81,82,82,82,83,83,83,83,83,83,83,82,83,83,83,82,82,82,82,82,82,82,82,82,82,82,82,82,82,82,83,83,83,84,83,83,84,84,84,83,83,83,83,83,83,83,82,82,82,83,83,83,83,83,85,84,84,84,84,84,84,85,84,84,84,85,84,84,84,84,84,84,85,84,85,85,85,85,85,86,86,85,85,85,85,85,85,85,85,85,85,86,86,86,86,87,87,87,86,86,86,86,86,86,86,85,85,85,84,85,85,85,85,85,86,86,86,86,87,87,88,88,88,88,88,88,88,88,88,88,88,88,88,88,88,88,88,88,88,89,89,90,90,90,90,90,90,90,90,90,91,91,91,91,91,91,90,90,90,90,90,90,90,90,90,90,89,90,90,90,90,90,90,90,90,90,91,91,90,90,91,90,90,90,91,91,90,91,91,91,91,92,92,91,92,92,93,93,93,93,94,93,94,94,94,95,95,96,95,95,95,95,95,95,95,94,95,94,95,95,94,95,94,95,95,96,96,96,96,96,96,96,96,96,96,95,95,95,95,95,95,95,95,95,95,95,95,95,95,95,95,95,96,96,96,96,97,97,97,98,98,99,99,99,99,99,97,97,97,98,97,97,97,97,97,96,96,96,96,96,97,97,98,99,99,100,100,100,100,100,100,99,99,99,99,99,98,98,98,97,97,97,97,97,96,96,96,96,95,96,95,95,95,94,95,95,96,96,96,96,96,96,97,98,98,99,100,101,102,104,105,106,107,108,108,109,110,110,111,110,110,110,110,111,111,112,113,114,115,115,117,117,117,118,119,119,119,119,118,118,118,117,118,118,118,119,119,120,121,122,122,123,125,125,126,126,127,127,127,127,127,126,126,126,127,128,128,129,130,131,132,132,133,133,133,133,134,134,134,135,135,135,136,137,138,139,140,145,145,145,145,145,145,145,145,145,145,145,143,144,144,143,143,142,143,143,143,144,145,146,147,150,152,155,160,164,167,172,176,181,186,191,195,199,203,207,209,211,212,213,213,213,213,213,213,214,214,215,216,217,218,219,220,221,221,221,220,220,220,222,223,225,227,230,232,234,236,238,240,242,244,245,245,246,246,245,244,243,243,243,243,243,243,244,244,245,245,245,246,247,247,249,250,252,253,256,258,260,263,265,267,268,269,270,271,271,271,270,269,268,268,266,266,265,264,263,263,263,262,261,261,260,259,258,257,259,261,262,263,264,265,265,266,268,269,270,272,273,275,277,279,281,284,287,291,295,299,303,307,311,315,319,321,322,323,322,321,320,320,320,320,320,320,320,320,320,320,319,318,317,316,316,316,316,316,316,316,317,317,317,316,316,316,315,315,315,316,317,317,319,320,322,324,327,331,336,341,347,354,361,368,375,383,390,397,403,409,413,417,419,421,421,421,420,419,418,417,415,415,414,414,414,415,415,415,415,415,415,415,415,414,413,411,411,411,412,413,415,417,420,423,426,428,431,433,435,438,439,441,443,445,447,449,462,463,463,462,462,462,461,460,459,458,456,454,453,451,450,449,448,447,446,444,443,441,441,440,439,439,438,438,437,436,436,435,435,435,434,434,434,434,433,433,432,432,431,430,431,430,431,432,433,434,435,437,440,442,445,447,450,452,454,456,458,459,461,462,464,466,468,470,473,475,478,480,481,482,483,484,484,484,484,483,483,481,480,479,477,476,475,474,473,471,470,469,467,465,464,462,461,459,458,457,456,455,453,451,450,449,448,448,448,447,446,444,443,442,441,441,441,441,440,440,439,439,438,436,436,436,435,436,431,431,431,431,431,432,432,432,433,432,432,432,431,430,430,430,430,430,430,430,430,430,428,427,426,425,425,425,426,426,427,428,428,428,429,429,430,431,432,433,435,436,437,436,436,435,434,432,432,432,433,434,434,436,437,439,440,441,442,442,441,440,439,437,436,436,436,435,434,432,431,431,431,431,432,433,434,436,437,438,440,441,442,444,445,446,448,450,452,454,456,459,461,463,465,466,468,469,469,470,471,472,471,472,471,471,471,470,471,471,472,472,473,473,473,474,474,474,475,475,476,476,477,477,478,478,478,478,473,471,470,468,466,465,463,462,461,461,460,461,461,462,462,463,462,461,459,458,456,455,454,453,452,451,449,448,446,444,443,441,440,439,439,439,441,442,444,446,448,449,450,451,452,452,453,453,453,453,453,453,454,455,456,457,457,456,456,454,453,452,452,451,452,453,456,458,461,464,468,472,475,479,483,487,490,493,497,500,503,507,509,513,516,519,522,524,527,529,530,532,533,535,536,538,539,541,543,544,546,548,549,550,551,552,553,553,553,554,554,553,553,553,552,552,552,552,553,554,555,557,558,560,562,564,566,568,583,585,586,587,588,589,590,591,591,591,591,591,590,589,587,586,585,584,583,582,581,581,581,582,582,583,584,585,586,588,589,590,592,594,595,597,600,602,605,607,608,610,612,613,615,617,619,621,623,624,626,627,629,628,628,628,628,629,628,628,629,628,628,628,629,629,628,629,629,629,629,628,629,629,629,629,629,629,629,629,629,629,629,629,629,628,629,628,629,629,629,628,629,629,629,629,628,628,628,628,628,628,628,628,628,628,629,628,628,629,629,628,629,628,629,629,629,629,629,629,629,629,628,629,629,628,629,629,629,629,628,629,628,629,629,628,629,628,629,629,629,629,629,628,629,629,629,629,628,628,629,629,629,629,628,629,629,629,629,629,629,629,629,629,629,629,629,629,629,629,628,629,628,629,629,629,629,629,629,629,629,629,629,629,629,629,629,629,628,629,629,629,628,629,629,628,628,629,628,629,629,629,629,629,629,629,629,629,629,629,629,629,629,629,629,629,628,629,629,629,629,628,629,629,629,629,629,629,629,629,629,629,629,628,629,629,629,629,629,629,629,629,629,629,629,629,629,629,629,629,629,629,628,628,628,628,617,617,617,617,618,619,620,621,621,622,622,622,623,623,623,623,623,622,621,621,620,618,617,615,614,613,612,611,611,610,610,610,610,610,610,610,610,611,611,611,611,612,613,612,612,612,612,612,612,612,612,611,610,609,609,607,606,605,604,603,602,600,600,598,597,596,595,594,593,592,591,590,588,587,586,585,585,584,583,583,583,583,582,582,582,582,581,581,581,580,580,579,579,578,577,576,575,575,574,573,572,572,571,571,570,570,569,569,568,568,567,566,565,564,563,562,560,559,557,556,555,553,552,551,550,549,548,547,539,538,537,537,536,536,535,534,533,532,531,530,529,528,527,526,525,524,522,521,521,521,519,518,518,517,517,516,516,515,514,514,513,512,512,511,509,508,507,505,503,502,501,499,498,497,496,496,495,494,494,494,493,492,492,491,490,489,487,486,485,483,482,481,479,478,476,474,473,471,469,468,466,465,463,461,460,458,457,455,454,452,451,449,448,446,445,443,442,441,439,437,436,435,434,433,432,431,431,430,429,428,428,427,425,425,424,423,422,421,420,419,417,417,416,415,415,414,413,413,412,411,410,410,409,408,407,406,398,396,395,394,393,391,390,388,387,386,385,384,383,381,380,379,378,376,375,374,373,371,370,370,368,367,366,365,364,363,362,360,359,358,357,356,355,354,354,353,352,351,351,350,349,348,347,346,345,344,343,342,341,340,339,338,337,336,335,334,333,331,330,329,328,327,327,326,325,324,324,323,323,323,323,323,323,324,324,324,325,325,324,324,324,323,322,321,320,319,318,317,316,315,315,314,313,312,312,312,311,310,310,309,308,307,307,306,305,304,304,303,302,301,300,299,298,297,296,295,294,293,292,292,291,290,289,289,281,281,280,279,278,277,276,276,275,274,273,273,272,271,271,270,270,269,269,268,268,268,267,267,267,267,267,267,267,267,267,267,268,268,268,268,268,268,269,268,268,268,268,268,268,267,267,267,267,266,265,264,264,263,262,261,260,259,259,258,257,256,256,255,255,254,254,253,253,253,252,252,252,252,252,252,253,253,253,253,253,253,253,253,253,253,253,253,253,253,253,252,252,252,252,251,251,250,250,249,249,248,248,247,247,246,245,245,244,243,243,243,243,243,243,244,244,244,245,245,245,244,244,244,243,243,242,240,237,237,237,236,237,237,236,237,237,237,238,237,237,236,236,235,235,234,234,233,233,233,233,233,233,234,234,234,234,235,236,236,236,236,235,235,235,234,234,233,233,232,232,231,230,230,229,228,228,228,227,227,227,227,226,226,226,226,226,226,226,226,226,227,227,228,228,228,229,230,230,231,231,232,232,233,233,234,234,234,234,234,234,234,234,234,234,234,233,233,233,232,232,231,231,231,230,231,231,231,231,231,231,231,231,230,230,230,230,229,229,229,229,229,228,229,228,228,228,228,228,227,228,228,228,228,229,229,233,234,235,236,237,237,238,239,240,240,241,241,241,241,241,241,241,241,241,241,241,240,240,240,240,239,239,239,238,238,238,238,238,238,238,238,238,238,237,238,238,238,239,240,240,241,241,242,242,242,242,242,242,242,242,242,243,243,243,244,244,244,245,245,245,246,246,246,247,247,248,248,248,248,248,248,248,248,248,248,248,249,249,249,249,250,250,250,250,250,250,250,251,251,251,252,253,254,255,256,257,258,259,260,261,262,263,264,264,264,265,265,264,264,264,264,263,263,262,262,262,261,261,260,260,260,260,259,262,263,264,263,263,263,263,262,262,263,262,262,262,262,262,262,261,261,261,262,262,262,262,263,262,262,262,262,262,262,261,261,261,261,261,261,261,261,261,262,262,262,262,263,263,263,263,263,263,264,264,264,265,265,265,266,266,266,266,267,268,269,269,270,270,271,271,272,272,273,273,273,273,274,275,275,275,275,275,275,275,276,276,276,276,276,276,276,276,276,276,276,276,276,276,277,277,276,277,277,277,277,277,278,278,279,279,279,279,279,279,280,280,280,281,281,282,283,283,283,284,285,285,286,286,287,288,288,291,291,291,292,292,292,293,293,293,294,294,294,294,294,294,294,294,295,295,295,295,295,295,295,295,295,296,296,296,296,297,297,297,298,298,298,298,298,300,300,300,300,301,301,302,302,302,303,304,304,304,305,306,306,306,307,307,307,307,308,308,308,308,309,309,309,309,310,311,311,311,312,312,313,313,313,314,314,314,314,314,315,315,316,315,316,315,316,317,317,317,317,317,317,317,318,318,318,318,319,319,319,319,319,319,320,320,320,321,321,321,322,323,322,323,323,323
59,58,58,58,58,58,58,58,58,58,57,58,58,66,66,66,66,66,66,65,66,65,65,66,66,66,66,66,66,66,65,66,66,66,66,66,66,66,66,66,66,66,66,66,66,66,66,66,66,66,65,66,65,66,65,65,65,66,66,66,66,66,66,66,66,66,65,67,66,65,65,66,65,65,65,65,65,65,65,65,65,65,66,66,66,67,67,67,67,68,67,68,68,68,68,68,68,68,68,68,67,68,68,68,69,69,70,71,71,70,70,71,71,70,71,71,70,71,71,71,70,69,70,70,70,70,70,70,70,70,70,70,70,70,70,71,70,71,71,71,72,72,72,72,72,72,72,72,72,72,72,72,72,72,72,71,72,71,72,71,72,71,73,72,71,71,71,71,71,71,71,71,71,70,71,71,72,72,72,73,73,73,74,74,77,77,78,77,77,77,77,77,77,77,78,78,78,78,78,78,78,78,78,79,79,80,81,82,83,83,84,85,85,87,86,86,86,86,86,86,86,86,87,88,89,89,91,92,93,95,96,97,98,99,100,101,101,100,101,101,101,102,102,102,102,102,102,102,102,103,103,103,104,104,104,104,104,103,103,104,104,104,105,105,106,105,106,105,105,105,105,105,104,105,104,104,105,104,103,103,103,103,102,102,102,102,102,102,103,105,107,109,111,114,116,117,118,119,121,121,121,120,120,121,122,123,125,125,126,126,126,126,126,125,125,124,124,124,124,124,124,124,124,124,124,123,123,123,123,122,122,123,123,124,124,125,126,127,128,129,129,130,130,129,129,129,130,130,130,131,131,131,131,131,131,131,131,130,130,130,130,129,129,129,129,129,129,128,128,128,128,127,128,128,128,128,129,129,128,128,128,127,127,127,127,126,126,126,126,125,125,126,126,126,126,126,127,127,127,127,127,126,126,125,125,125,125,124,124,124,124,124,124,124,123,123,123,122,122,122,122,122,123,121,121,120,120,120,119,119,119,119,118,118,118,118,117,117,117,117,117,117,116,116,116,117,117,117,117,117,117,118,117,115,116,116,115,115,114,114,114,114,114,115,116,118,120,122,123,124,125,126,127,127,128,128,128,128,128,127,127,127,127,127,127,127,127,127,127,127,127,126,126,127,127,127,128,129,129,129,130,131,130,130,130,130,129,130,130,131,130,130,130,130,131,132,132,132,133,133,134,135,136,136,136,136,136,135,135,135,134,134,134,135,135,135,136,136,136,136,137,137,137,137,137,137,136,136,137,137,137,137,137,138,139,139,139,140,141,141,141,141,140,140,139,139,139,138,138,138,137,137,138,138,139,140,142,143,145,147,149,157,157,157,156,156,156,155,156,156,157,157,158,159,161,163,166,169,171,173,175,175,175,175,175,175,177,177,179,180,182,184,185,186,187,187,187,187,187,187,187,187,188,189,190,190,191,191,192,192,193,193,193,193,192,192,192,191,191,192,192,191,191,190,190,189,189,189,189,189,189,189,189,189,188,188,188,188,188,188,188,189,188,187,187,187,186,186,185,185,184,184,183,182,182,181,181,181,180,180,180,180,180,180,180,179,180,180,181,183,185,188,190,193,196,199,202,204,206,208,210,212,213,215,217,219,221,223,226,255,254,253,253,254,255,256,257,260,261,264,266,268,270,270,271,271,270,270,270,269,268,268,267,267,268,268,269,270,271,273,274,276,278,280,281,282,284,286,287,288,290,291,293,294,295,297,297,298,298,299,298,297,296,297,298,299,301,302,303,304,305,306,306,305,304,303,302,301,300,300,301,302,302,304,305,307,308,310,311,313,313,313,314,313,313,313,312,311,310,309,308,307,306,305,304,303,303,303,303,304,305,305,306,307,307,308,308,307,306,305,306,306,307,308,308,309,310,310,310,309,308,307,307,307,307,307,307,306,307,307,308,309,309,310,311,311,311,312,312,312,313,314,314,316,316,317,317,318,319,319,319,319,318,317,316,315,314,313,312,311,311,310,310,309,309,308,307,307,307,308,309,309,311,312,312,313,312,311,310,310,310,310,310,310,311,311,313,313,314,316,317,317,318,319,319,320,320,320,320,320,319,318,317,316,316,315,314,313,313,312,312,312,311,310,310,310,310,311,312,313,315,317,319,322,323,324,324,324,324,323,323,322,322,322,323,323,324,325,326,326,327,328,328,328,328,328,328,327,327,327,327,327,326,326,327,328,329,330,330,331,331,332,332,332,332,332,331,330,329,328,328,329,329,330,330,330,329,328,327,326,325,325,325,326,326,328,329,331,333,335,337,339,340,342,344,345,347,348,349,350,351,352,352,353,353,353,353,352,352,351,351,350,349,349,349,349,349,349,349,349,349,350,350,351,352,352,352,352,352,352,351,351,351,351,352,352,352,353,353,354,355,355,356,357,358,359,359,360,360,360,360,359,359,359,358,357,356,356,354,353,352,351,349,349,347,347,346,346,346,347,348,348,349,349,349,350,350,351,351,351,351,351,351,350,350,351,352,353,353,355,356,357,358,361,363,365,369,371,374,377,379,381,383,385,386,387,387,387,386,386,386,386,386,385,386,385,385,385,385,385,385,386,386,386,386,386,386,386,386,386,385,384,383,382,381,379,378,377,377,376,376,375,373,372,371,370,369,368,366,365,365,365,364,364,365,366,367,369,370,372,374,375,377,378,379,380,380,381,381,381,381,380,380,380,380,382,381,381,382,383,384,385,385,386,387,388,388,389,389,390,390,390,389,388,388,388,387,386,386,385,385,384,384,383,383,382,382,381,381,381,381,386,386,385,384,384,383,382,380,379,379,377,376,375,374,372,372,371,371,370,370,371,371,371,372,372,372,372,371,371,371,371,370,370,370,370,370,370,370,370,370,370,370,370,370,370,370,371,371,371,371,370,371,370,370,370,370,369,369,369,368,368,367,366,365,364,363,362,361,359,359,357,356,356,355,355,355,354,354,354,353,353,353,353,353,353,353,353,353,353,354,354,354,355,355,355,355,355,355,355,355,354,353,353,352,351,350,350,349,348,346,345,345,343,342,341,340,339,338,337,336,335,334,333,332,331,329,329,328,324,324,325,325,325,326,327,327,328,329,329,329,329,330,330,330,329,329,329,329,329,328,328,328,328,328,328,328,328,327,327,327,326,325,325,325,324,324,324,324,323,323,323,322,322,322,321,321,320,320,320,319,319,318,317,317,317,316,316,315,315,314,315,314,314,314,314,313,314,314,314,315,316,316,317,317,317,318,318,317,317,317,316,316,315,315,314,313,312,311,310,310,309,308,308,307,306,305,304,303,303,302,301,300,300,299,298,298,297,296,296,295,295,295,294,293,293,293,292,291,291,290,289,289,288,288,287,287,283,283,283,282,282,282,283,282,282,282,282,282,282,282,281,281,281,281,280,280,279,279,279,278,277,277,276,276,276,275,274,274,273,272,272,271,271,271,270,269,269,268,267,267,266,265,264,263,262,262,261,260,259,258,258,257,256,255,255,254,254,253,253,252,253,252,252,252,252,252,252,252,252,252,252,252,252,252,251,251,250,250,249,249,248,247,247,246,246,246,245,245,244,243,243,243,242,241,241,240,239,239,238,237,237,236,235,235,234,234,233,233,233,233,232,232,232,231,231,230,230,230,228,228,227,227,226,226,222,222,222,222,222,222,222,222,221,221,221,221,220,221,219,219,218,218,217,216,216,215,214,214,214,213,212,212,211,211,210,210,209,209,208,208,207,207,207,207,206,206,206,206,205,205,204,203,203,202,201,201,200,200,199,199,198,197,196,196,195,195,195,195,194,194,194,194,193,194,194,193,192,192,192,192,191,191,190,190,189,189,189,188,188,187,187,186,185,185,185,185,185,184,183,184,184,183,184,183,183,183,183,184,183,184,183,183,182,182,181,181,181,181,180,180,180,180,180,179,179,179,179,178,178,178,178,178,174,173,173,172,172,171,170,170,169,169,169,168,168,167,168,167,167,167,167,168,168,167,167,166,166,165,165,165,165,166,166,166,166,166,166,166,166,165,165,164,164,163,163,163,162,162,161,161,160,160,160,160,159,159,158,158,158,157,157,157,156,157,156,156,156,156,156,155,155,155,155,155,155,154,155,154,153,153,153,153,152,153,152,152,153,152,152,151,151,151,151,150,150,149,149,149,148,148,148,148,147,147,147,146,146,146,145,145,145,145,144,144,143,143,142,142,142,142,141,141,141,141,140,140,140,139,139,139,135,135,134,134,133,133,133,132,132,132,132,132,132,132,133,133,133,133,134,134,134,133,133,133,133,133,132,132,132,132,132,132,132,132,133,132,132,132,131,131,131,130,131,131,130,131,131,131,131,132,132,132,132,132,132,132,131,131,130,131,130,130,130,130,130,129,129,129,129,128,128,128,128,128,128,128,129,128,128,129,129,129,129,130,130,130,130,130,129,129,128,128,128,128,128,128,128,128,128,128,128,129,129,129,128,128,127,128,127,127,127,127,127,127,127,127,127,128,128,128,128,128,127,127,126,127,126,127,126,126,126,126,126,126,126,125,126,126,126,126,126,126,126,126,125,126,126,125,125,125,125,124,124,124,124,123,123,123,123,122,123,122,121,121,121,121,121,121,121,122,121,121,120,120,120,119,119,119,119,118,118,118,118,117,117,116,116,116,116,115,115,115,114,114,114,113,114,114,114,115,115,115,116,116,116,116,116,116,116,117,117,117,117,117,117,118,118,118,117,118,118,118,118,118,118,118,117,117,117,117,116,116,116,116,116,116,116,117,117,117,117,117,117,117,117,117,116,116,116,116,116,115,115,115,115,115,116,117,117,117,117,117,118,117,118,118,117,118,118,118,118,118,118,118,118,118,118,118,118,118,118,118,117,118,118,117,117,117,117,117,117,116,116,116,115,115,115,115,116,115,116,115,115,115,114,115,115,115,115,116,117,117,117,118,118,118,118,118,119,119,119,119,119,120,120,120,120,120,119,119,119,118,118,118,118,118,117,117,117,117,116,116,116,117,116,116,116,116,117,116,117,117,117,117,117,117,117,117,117,117,117,117,117,116,116,116,116,116,116,116,115,115,115,115,115,115,115,115,115,115,114,115,115,115,117,117,117,117,117,118,117,118,118,118,118,118,118,117,118,118,118,118,118,118,118,118,118,118,117,117,117,117,117,116,116,116,116,115,115,114,114,114,114,113,113,113,113,113,112,113,112,112,112,112,112,112,112,112,112,112,112,112,112,113,113,114,114,114,115,115,115,115,116,115,116,116,116,116,117,117,117,117,117,117,117,118,117,118,117,117,117,116,116,116,115,115,115,115,114,114,114,114,113,113,113,113,113,113,113,113,113,113,113,113,113,113,114,114,115,115,115,116,116,116,116,116,118,118,118,118,119,119,121,121,121,121,121,120,121,121,121,121,120,121,121,121,121,121,122,121,121,122,122,122,122,122,123,122,122,124,123,123,123,123,123,123,123,123,123,123,123,123,123,123,123,123,123,123,123,123,124,124,124,124,124,124,124,124,123,123,123,124,124,123,123,123,122,122,122,122,122,121,121,121,121,121,121,121,121,121,121,122,122,122,122,122,122,122,122,122,123,123,123,123,124,124,125,125,126,125,126,126,126,126,127,126,126,127,127,126,127,127,127,127,127,126,127,127,127,127,127,127,127,127,127,127,126,126,126,126,124,125,124,125,125,125,124,125,124,125,124,125,125,125,125,125,126,126,126,126,127,127,127,127,127,127,128,127,127,128,127,127,127,127,127,127,126,127,127,126,126,127,126,126,126,126,126,126,126,126,126,126,126,125,126,125,125,125,125,124,124,124,123,123,123,123,122,122,122,123,123,123,123,123,124,123,124,123,124,124,124,125,125,125,125,126,126,126,126,127,127,127,127,128,128,128,128,128,128,128,127,127,127,127,127,127,127,127,127,126,126,126,126,126,126,126,126,125,125,125,124,124,124,123,123,123,122,122,122,122,122,123,123,123,123,124,123,123,124,123,124,124,124,125,125,125,125,125,125,125,125,126,125,125,125,125,125,125,125,125,125,125,124,125,125,125,125,125,125,125,125,125,125,125,125,125,125,125,124,124,124,124,123,123,123,123,123,123,123,122,122,122,122,121,121,121,121,121,121,121,121,121,122,121,121,121,121,122,122,122,122,122,122,123,122,122,122,123,122,122,122,122,122,122,122,123,123,123,123,123,123,123,123,123,123,123,123,123,123,123,123,122,122,122,121,121,121,120,120,120,119,121,119,119,119,119,121,121,121,121,122,122,123,123,123,123,124,124,124,125,125,124,125,125,125,124,125,125,125,125,125,126,125,125,125,125,125,126,125,125,125,125,125,124,124,124,124,124,124,124,124,123,123,123,123,123,123,123,124,124,124,124,124,125,124,125,125,125,125,126,126,126,126,127,127,127,127,128,128,128,128,128,128,128,128,128,128,128,127,128,128,127,128,128,128,128,128,128,128,128,127,127,127,127,127,126,126,126,126,125,125,125,124,124,123,123,123,122,122,122,121,121,121,121,121,121,121,121,121,121,121,121,121,121,121,121,121,122,122,122,122,123,123,123,123,123,123,124,123,123,124,124,124,123,123,124,123,123,123,123,124,123,122,123,123,122,122,122,122,121,121,121,121,121,120,120,120,120,119,119,119,120,119,120,119,119,119,119,120,119,119,120,120,120,120,120,121,121,121,121,122,123,123,123,123,124,124,124,124,124,124,124,125,124,124,124,124,124,124,123,123,123,123,122,122,122,121,121,121,120,121,120,120,119,119,119,119,119,118,117,117,117,116,116,116,116,117,115,115
55,55,55,55,56,56,56,55,56,55,55,55,55,56,55,68,68,68,67,68,68,68,68,68,67,68,68,68,67,68,68,67,67,68,67,67,68,67,66,66,66,66,66,66,66,66,66,66,66,66,66,66,66,65,65,65,65,65,65,64,65,64,64,64,64,64,64,64,64,64,64,64,64,64,64,64,65,65,65,65,65,66,65,65,66,66,66,66,66,66,66,66,66,66,66,66,66,66,66,66,65,66,65,66,65,65,65,65,65,65,65,64,64,64,64,64,64,64,64,65,64,64,64,64,64,64,64,63,63,63,63,63,63,63,63,63,63,63,63,62,63,63,64,64,64,64,64,65,64,65,65,65,66,66,65,65,65,65,65,65,65,65,65,65,64,65,64,65,65,65,65,65,65,65,65,64,64,64,64,65,64,64,64,64,64,64,63,63,63,63,63,63,63,63,63,63,62,62,63,63,63,63,64,64,64,64,64,64,64,64,64,64,64,64,65,65,65,65,66,65,66,66,66,66,66,66,66,65,66,66,66,65,65,65,65,65,65,65,64,64,65,64,64,64,64,65,64,64,64,64,64,64,64,64,64,63,64,63,63,63,63,63,63,63,63,63,63,63,63,62,63,62,63,63,63,63,63,63,63,63,63,63,63,63,63,63,63,63,63,63,62,63,63,63,63,63,63,63,63,63,63,63,63,62,63,62,62,62,62,62,62,62,62,62,61,61,61,61,62,61,61,61,61,61,61,61,61,61,61,62,61,61,62,62,62,62,62,63,62,62,63,62,63,63,62,62,62,61,62,62,62,62,62,62,62,61,61,61,61,61,60,60,61,60,60,60,60,60,60,60,60,60,60,59,59,60,59,59,59,59,60,60,60,60,60,61,61,61,61,61,61,62,61,61,61,61,61,61,61,61,61,61,61,61,61,61,61,61,61,61,60,61,61,60,61,61,60,60,60,60,60,60,60,60,60,60,60,59,59,59,60,59,59,59,59,59,59,59,59,59,59,58,58,59,58,59,58,58,59,58,58,58,58,58,58,58,58,58,57,58,58,58,58,58,59,59,59,59,59,59,59,59,59,59,59,59,59,59,60,60,60,61,61,61,61,61,61,61,61,61,61,61,61,60,60,60,60,60,61,61,61,61,61,61,61,61,61,61,61,61,61,61,62,62,62,62,63,63,63,64,63,63,63,64,64,65,65,69,68,68,68,68,68,68,68,68,68,68,68,68,68,67,68,68,68,68,68,67,67,68,67,68,67,67,67,67,66,66,67,66,66,66,66,66,66,66,66,66,66,66,66,66,66,66,66,66,65,65,65,65,65,65,65,64,65,64,64,64,65,64,64,64,64,64,64,64,64,65,64,65,66,66,67,67,67,67,67,68,68,68,68,68,68,69,68,68,69,69,69,69,69,69,69,69,69,69,69,68,68,68,68,68,68,69,68,68,68,68,68,68,68,68,67,68,67,68,68,68,67,68,68,68,68,68,68,68,68,68,68,68,67,68,68,68,68,68,68,68,69,68,68,69,68,68,68,68,68,67,67,67,67,67,67,67,68,67,68,67,68,67,67,67,68,67,67,68,67,67,67,67,67,67,67,67,67,67,67,67,67,67,67,66,66,67,67,68,68,68,68,68,69,68,68,68,68,68,68,67,68,68,68,68,67,68,67,67,67,67,67,67,67,67,67,67,67,66,67,67,67,68,68,67,68,67,67,67,67,66,67,67,67,67,67,67,66,67,67,67,67,67,67,67,67,67,67,66,67,67,66,66,66,67,67,66,66,66,66,67,66,66,66,66,66,67,68,68,69,70,70,71,72,73,75,76,77,76,77,77,77,77,77,77,76,77,76,77,76,76,76,76,77,76,77,77,78,78,78,78,78,78,78,79,78,78,78,78,78,77,77,77,77,77,77,77,77,78,78,78,79,80,80,81,82,83,84,85,85,86,86,87,87,87,87,87,87,87,87,87,92,91,92,92,92,91,92,92,91,92,92,91,92,92,92,93,93,93,93,94,94,94,94,94,95,95,95,94,94,93,94,94,94,95,95,95,95,95,96,96,96,97,97,97,97,96,96,96,96,96,96,96,96,97,97,97,98,99,99,100,100,100,101,100,100,100,99,99,99,99,98,98,98,98,99,100,100,101,102,103,103,103,103,103,103,102,102,102,102,102,102,103,104,105,104,104,105,105,106,107,107,108,109,110,110,111,111,112,111,112,112,112,112,112,111,111,111,110,111,110,110,109,109,109,109,109,108,108,108,108,108,107,108,108,108,109,109,110,111,111,112,112,112,113,113,114,115,115,115,116,116,117,118,118,118,119,120,120,121,121,121,121,121,121,121,120,121,120,119,119,119,119,119,119,118,118,118,119,120,121,122,123,124,126,127,129,130,130,131,131,131,132,132,131,132,132,132,132,133,133,133,135,134,134,134,134,133,133,134,134,134,134,135,135,135,135,135,134,134,133,133,133,134,134,135,136,138,138,139,140,140,141,140,140,140,139,140,140,141,141,141,141,142,143,143,143,143,143,143,143,143,143,143,142,142,142,141,141,140,141,140,140,139,139,139,138,138,137,137,137,136,136,136,140,140,141,141,142,142,143,143,144,143,143,143,143,142,142,142,142,142,142,142,142,143,143,144,146,147,149,150,151,152,152,152,152,151,150,150,150,149,149,149,148,148,148,148,147,148,147,147,147,146,146,146,145,145,145,144,144,143,143,143,142,142,142,141,141,141,140,140,139,139,138,138,138,138,138,138,139,138,138,139,139,138,138,137,137,137,137,137,137,137,138,137,138,138,139,139,139,139,139,138,138,138,138,139,139,138,138,138,139,138,137,137,138,138,139,140,140,140,140,140,140,140,140,140,139,139,138,138,135,134,135,134,134,133,134,135,136,137,139,141,143,145,147,148,149,149,149,148,148,148,148,148,147,147,147,146,146,146,146,146,145,145,145,144,144,144,144,145,145,146,148,149,149,150,151,152,152,154,155,155,156,157,157,159,159,160,160,161,162,163,163,164,165,166,167,168,169,171,171,171,172,172,171,171,170,171,170,169,169,167,168,168,168,167,167,167,167,166,166,166,165,166,165,166,165,165,166,165,165,165,165,164,163,163,163,162,162,161,161,161,161,161,160,160,160,160,161,161,162,163,164,165,166,167,169,170,179,180,179,180,181,181,181,180,181,180,180,179,180,180,181,182,184,185,187,188,189,190,190,190,189,189,189,188,188,188,189,189,189,191,192,192,195,195,196,197,198,199,200,202,203,204,206,207,208,209,210,210,211,211,211,211,211,212,212,213,213,213,213,213,214,214,214,214,215,215,215,215,215,215,215,214,215,214,214,214,213,213,213,212,212,211,211,210,209,209,209,209,209,210,211,212,213,214,215,215,214,213,213,213,213,213,214,215,214,215,215,216,215,215,214,214,213,213,212,212,212,211,211,212,213,213,213,212,211,212,213,213,214,216,217,218,219,220,220,220,221,221,220,220,220,220,220,220,220,221,221,220,220,220,219,218,218,218,218,219,220,221,222,221,220,219,219,218,218,218,218,218,219,219,219,220,221,222,223,225,226,227,228,229,231,232,232,233,233,233,233,234,234,234,235,235,236,236,236,236,236,237,237,238,238,239,239,239,239,239,239,239,239,240,240,240,241,242,242,243,243,243,243,244,244,244,244,244,244,244,244,244,244,244,243,243,243,242,241,240,240,239,239,238,238,238,238,238,238,238,238,238,238,238,238,238,239,239,238,238,237,237,237,236,235,234,234,234,233,232,231,231,230,231,231,231,233,234,235,236,237,239,240,241,242,242,242,242,241,240,240,240,240,241,242,242,243,242,242,242,241,240,239,239,239,238,238,238,238,238,239,239,240,241,241,241,241,241,240,240,239,238,238,237,236,236,235,236,235,235,236,237,237,238,238,238,239,239,239,239,238,238,237,237,236,235,235,235,234,233,233,231,231,230,229,229,228,228,227,226,226,226,226,226,226,226,225,224,224,223,222,221,221,220,219,220,220,220,220,220,220,220,220,219,221,222,222,223,224,224,224,224,224,224,224,224,224,223,223,222,221,221,221,220,220,220,220,220,220,220,221,221,222,222,223,223,224,225,226,227,228,229,230,230,230,229,229,229,230,231,232,233,235,235,235,235,235,234,233,234,234,235,235,236,237,237,238,238,239,239,239,239,239,239,239,239,240,240,241,242,243,244,245,246,247,248,249,250,250,251,252,253,253,253,254,254,254,254,254,253,253,252,252,251,251,251,251,251,251,252,252,253,253,254,254,253,253,253,253,253,252,252,251,250,250,249,249,248,247,247,246,245,258,258,258,257,256,256,256,257,258,258,259,259,259,259,260,260,260,260,260,262,262,263,264,265,266,267,269,270,271,272,274,275,276,277,278,279,280,280,281,281,281,281,281,281,281,282,282,282,282,283,283,283,283,283,283,283,283,284,284,284,284,283,283,283,282,281,280,279,279,278,278,277,276,276,275,274,273,273,272,271,270,270,269,269,270,270,271,272,274,275,277,278,280,281,283,284,285,285,284,283,282,281,280,280,279,277,277,276,275,275,274,273,273,272,271,271,271,271,271,271,271,269,269,268,269,268,268,268,271,272,274,274,275,276,277,277,278,279,279,280,280,280,280,280,280,280,280,280,280,280,280,280,280,280,279,279,279,279,280,280,280,280,280,280,281,280,280,280,280,281,281,281,282,282,282,282,283,284,284,284,284,284,284,283,283,282,281,280,279,278,277,276,275,275,275,274,274,274,274,274,274,274,274,274,274,274,274,274,274,274,274,274,274,274,274,274,274,273,273,272,271,271,270,270,269,268,267,267,266,266,265,265,264,264,264,264,264,264,264,264,263,264,264,265,265,265,265,265,265,266,265,264,264,264,263,263,260,260,260,260,259,258,258,257,256,255,255,254,253,253,253,252,252,252,252,252,252,252,252,252,252,251,251,250,250,249,248,248,248,248,248,248,248,248,247,248,248,248,248,248,248,248,248,247,247,247,247,246,246,245,244,243,243,243,242,241,240,240,239,238,237,236,235,235,234,233,233,233,232,232,232,233,233,234,235,236,237,238,239,240,240,240,240,240,240,239,239,238,237,236,235,235,234,233,232,231,231,230,230,230,230,230,230,229,229,229,228,227,227,226,226,225,225,225,225,224,224,223,222,222,221,220,219,219,212,212,212,212,212,211,212,212,212,212,212,212,213,213,214,213,212,212,211,211,210,209,209,208,208,207,207,206,206,205,205,205,205,204,204,204,204,204,204,204,204,204,203,203,203,203,203,203,203,203,202,202,202,202,201,201,200,200,200,199,198,198,197,197,196,195,195,195,194,194,194,194,194,193,193,193,193,192,192,192,191,190,190,190,189,189,189,188,189,188,188,188,187,187,186,186,185,185,185,184,184,185,185,185,185,184,184,183,183,183,182,181,181,181,181,180,180,181,181,180,180,180,179,179,179,179,180,179,179,177,177,177,176,176,175,175,174,174,174,174,174,173,173,173,173,172,173,173,172,172,171,171,170,170,170,170,170,169,169,168,168,167,167,167,166,166,165,165,164,164,164,164,164,164,165,165,166,166,167,167,167,167,167,166,166,165,165,165,164,164,164,164,164,163,163,162,162,162,161,161,161,160,160,159,159,158,158,158,157,157,156,156,155,155,154,153,154,153,153,152,152,152,152,151,151,151,151,150,150,149,149,149,148,148,147,147,146,147,146,146,145,145,145,145,144,144,143,143,142,142,142,141,141,140,140,140,138,138,138,137,137,136,136,136,135,135,134,134,134,133,133,133,132,132,132,132,132,131,130,131,130,131,130,130,130,130,129,129,129,129,128,128,128,127,128,127,127,127,126,126,126,126,125,125,125,125,124,124,125,123,123,124,123,123,123,123,123,123,123,124,124,123,123,123,123,122,122,122,122,121,121,121,121,120,120,119,119,119,118,118,118,118,117,118,118,117,118,117,118,118,117,117,117,117,117,116,116,117,115,115,114,114,114,113,113,113,113,113,113,112,112,112,112,112,112,113,112,112,113,112,112,112,112,111,110,110,110,110,110,110,110,109,109,109,109,109,110,110,110,110,110,109,109,109,108,108,108,108,108,107,107,107,107,107,107,106,106,106,106,106,106,106,106,105,105,105,104,104,104,104,104,104,104,104,103,103,103,103,103,102,102,102,102,103,103,102,103,103,103,103,103,103,103,102,103,103,103,104,104,105,105,106,105,106,106,106,106,107,106,106,106,106,106,105,105,105,105,105,105,105,105,105,104,104,104,104,104,104,103,103,103,102,102,102,102,102,102,101,102,101,102,101,101,101,101,100,100,100,100,99,99,99,99,99,98,98,99,98,98,98,98,98,98,98,98,99,98,99,99,99,99,99,99,99,99,99,99,99,99,99,99,98,98,98,98,98,97,97,96,97,96,96,96,96,96,95,96,96,95,95,95,95,95,95,95,95,94,94,94,94,94,93,93,93,93,94,93,94,94,94,95,94,95,94,94,94,94,94,94,94,94,94,94,94,94,94,93,94,93,94,94,94,94,95,95,95,95,95,95,95,95,95,95,95,95,95,95,95,95,94,95,94,95,94,94,94,94,94,94,94,94,93,93,93,93,93,92,92,92,92,92,92,92,92,92,93,93,93,93,93,93,93,93,93,94,94,95,95,95,96,96,96,96,97,96,97,98,98,98,98,99,98,98,98,98,98,98,98,98,98,97,98,97,97,96,97,96,96,96,96,96,96,95,95,95,95,95,95,94,95,95,95,95,95,95,95,94
62,62,63,63,63,63,63,64,64,63,64,64,64,64,65,65,65,65,65,65,66,66,65,66,66,66,66,66,66,67,67,67,67,67,67,67,67,68,67,68,67,67,67,67,67,67,67,66,66,66,66,66,66,66,66,66,66,66,66,66,66,66,66,65,66,65,65,66,65,65,65,65,65,65,65,66,66,66,66,67,67,67,68,68,67,68,68,67,68,67,67,67,67,67,68,67,67,67,67,67,67,67,67,68,67,68,67,67,67,67,67,67,67,67,67,66,67,66,67,67,67,67,67,67,67,67,66,67,66,66,66,66,66,66,66,66,66,66,66,66,66,66,66,66,66,66,77,78,78,77,77,77,77,77,77,77,77,77,77,76,76,76,76,76,75,75,75,75,75,75,75,75,74,74,75,75,74,74,74,74,74,73,74,74,73,73,73,73,73,72,73,72,72,73,72,72,72,72,72,72,71,72,71,71,71,71,71,71,71,70,71,70,71,70,71,71,70,71,71,71,71,70,70,71,70,70,70,70,70,70,70,69,69,69,69,68,69,68,69,68,68,68,69,68,68,68,68,68,68,68,67,68,68,68,67,67,67,67,67,67,67,67,67,67,68,67,67,67,66,66,66,66,66,66,66,66,66,66,66,65,65,65,65,65,65,65,65,65,65,65,65,65,65,64,65,64,65,65,64,64,64,65,65,64,65,64,64,64,64,64,64,64,64,63,63,63,63,63,62,62,62,62,62,62,61,61,61,62,62,61,61,61,61,61,61,61,61,62,61,62,61,62,61,61,61,61,61,61,61,61,61,61,60,60,60,60,60,60,60,60,60,60,60,59,60,60,60,60,59,59,59,59,59,59,59,59,59,59,59,59,59,59,59,58,59,59,59,59,59,59,59,59,59,59,59,58,59,59,58,58,58,58,58,58,58,58,58,58,58,58,58,58,58,58,59,58,58,58,58,58,58,58,58,58,58,58,57,57,58,57,57,58,58,58,58,58,58,58,58,59,58,58,58,58,58,59,59,59,59,59,59,59,59,59,59,60,59,60,60,61,61,62,63,64,65,65,66,66,67,67,67,67,67,67,67,67,67,66,67,67,67,66,66,66,66,66,67,67,66,66,65,66,66,66,67,67,68,68,68,68,68,69,69,69,69,69,69,69,69,69,69,70,69,69,70,69,69,69,69,69,69,69,69,69,69,68,68,69,68,68,68,68,68,68,68,68,68,68,68,68,68,68,69,69,70,70,71,71,72,73,73,74,73,74,74,74,74,75,75,75,76,76,77,78,78,78,79,80,80,81,81,81,81,81,81,81,81,80,81,81,80,80,81,81,81,81,81,82,82,82,83,83,83,82,83,83,83,82,83,82,82,83,82,82,82,82,82,82,82,81,81,82,81,82,82,81,82,82,81,82,81,82,82,82,81,81,82,81,81,81,81,81,81,81,81,80,80,81,80,80,79,80,81,81,80,80,80,80,80,81,80,80,80,80,81,81,81,82,82,82,82,82,82,82,83,84,84,85,86,85,85,85,85,85,84,85,85,85,85,84,84,85,85,85,85,85,86,87,88,89,89,91,93,94,96,97,98,99,101,102,103,103,103,104,104,104,104,103,103,103,103,103,103,103,102,102,102,102,102,101,101,102,103,103,104,105,106,107,107,109,110,110,111,112,113,114,115,116,116,117,118,118,118,118,118,118,118,117,117,117,117,117,118,118,118,119,119,119,120,120,120,121,121,121,120,120,120,120,120,121,122,123,124,125,125,126,126,126,126,126,127,129,131,133,137,139,143,146,149,152,156,160,164,169,173,178,211,212,213,214,213,213,213,213,214,216,218,221,223,225,226,227,227,228,228,229,229,228,229,229,230,231,232,234,236,238,240,242,243,244,245,245,245,244,244,244,245,245,245,246,248,248,249,251,252,254,256,258,260,262,263,264,265,265,264,263,263,262,261,260,260,259,259,259,259,260,260,261,261,262,262,262,262,261,261,261,261,262,264,265,267,270,271,273,275,276,276,277,277,276,275,274,273,272,272,272,271,271,270,269,270,270,271,272,273,274,274,275,275,274,273,273,273,273,274,275,277,279,280,282,283,285,287,289,308,309,310,311,310,310,309,309,310,311,312,315,317,320,324,327,331,335,340,344,348,352,356,360,363,365,368,369,370,369,368,368,366,365,365,364,364,363,362,361,361,361,361,362,363,364,366,368,370,372,375,377,380,382,383,384,385,385,385,385,385,385,386,386,386,386,386,386,386,387,388,389,390,391,392,393,394,394,394,394,394,392,391,390,389,388,387,386,386,387,388,390,391,393,393,393,392,391,391,390,391,391,390,390,390,388,387,386,385,384,384,383,382,381,381,379,379,379,379,379,380,381,382,383,383,384,384,383,383,383,384,384,384,385,385,385,385,386,385,385,386,386,386,387,387,388,389,390,390,391,392,392,393,394,394,395,395,395,395,395,395,395,394,393,393,392,392,392,393,393,393,394,395,396,396,396,397,397,397,396,397,396,395,395,394,394,394,393,393,393,392,392,392,392,392,393,394,394,395,396,396,397,398,399,400,401,402,403,403,404,405,404,405,405,405,406,407,408,409,411,412,413,413,414,414,414,415,415,416,416,417,418,418,419,420,421,422,424,425,426,427,428,428,429,429,430,431,431,432,433,434,435,435,436,437,438,446,447,448,448,449,450,451,451,452,453,453,454,455,456,457,458,458,459,459,460,460,461,461,461,461,462,461,461,460,460,459,459,459,459,459,460,462,463,465,467,470,472,475,477,479,481,482,484,485,486,486,488,487,487,487,486,486,486,485,484,483,482,482,480,479,478,477,475,474,473,473,472,471,471,471,472,472,472,473,474,475,476,477,477,478,478,478,477,477,477,477,477,477,477,477,478,479,480,481,482,484,485,486,487,487,487,487,487,487,486,486,485,484,484,483,482,482,482,482,482,482,483,484,485,486,488,489,491,503,504,504,505,505,505,505,505,505,504,503,502,501,501,500,500,500,501,502,503,505,506,508,510,511,513,514,515,517,517,517,517,516,515,514,512,511,510,509,508,508,507,507,507,506,507,506,506,506,507,506,505,505,504,502,501,499,498,497,496,495,494,494,493,492,491,490,488,487,486,485,484,482,481,480,479,478,477,477,476,477,476,476,476,477,476,477,476,476,476,476,476,477,476,476,477,477,477,478,478,479,480,480,480,480,480,480,480,480,480,480,479,479,479,478,477,477,476,475,474,474,473,472,471,470,469,468,468,465,464,464,463,462,462,461,461,461,461,460,461,460,460,459,458,457,456,455,454,453,452,452,451,450,450,449,448,446,445,443,442,441,440,439,438,438,438,438,437,437,436,434,433,432,430,429,428,427,426,425,423,422,420,419,418,417,416,415,414,413,413,413,413,413,413,414,414,415,415,416,417,418,419,421,422,423,424,424,425,426,425,426,425,425,425,424,424,423,422,421,421,420,420,419,418,418,418,417,417,417,417,417,416,416,416,416,416,416,415,415,414,413,413,412,411,410,410,409,409,408,407,407,406,405,405,404,403,399,397,397,395,394,392,392,390,389,388,386,385,384,383,382,382,382,381,381,381,382,381,382,382,382,382,382,382,382,382,382,382,382,382,382,382,383,383,383,383,383,383,382,382,381,381,380,379,379,378,377,376,375,374,373,373,370,370,369,368,367,366,364,363,362,361,360,359,358,357,357,356,356,355,353,352,351,351,350,350,350,349,349,349,349,349,349,349,349,349,350,350,351,352,353,354,354,355,356,356,357,357,357,357,356,357,357,356,356,355,356,355,354,354,354,353,352,351,351,350,348,348,347,346,346,345,345,345,336,336,335,335,335,334,334,335,335,335,335,336,336,336,337,338,338,338,339,339,339,339,339,338,338,338,338,337,337,337,336,336,336,336,336,335,335,335,335,335,335,335,335,335,335,335,336,336,336,336,335,335,335,335,334,334,333,332,331,330,329,328,327,326,325,324,323,322,321,320,319,318,317,316,315,314,313,312,311,310,309,309,308,307,306,306,304,304,303,302,302,302,302,302,303,303,303,303,303,303,303,303,302,301,300,299,299,298,297,297,297,296,296,295,295,294,294,293,292,292,292,291,291,291,291,290,290,289,280,279,278,277,277,276,276,276,277,277,277,279,278,279,279,280,281,281,282,282,282,282,282,282,282,283,283,283,283,283,283,283,282,282,281,281,281,280,280,279,279,278,277,276,276,275,274,274,273,272,271,271,270,269,268,267,267,266,265,265,264,263,263,262,262,261,260,259,258,257,256,256,256,256,255,255,255,255,255,255,256,256,256,256,256,256,256,256,256,256,256,255,255,255,255,254,254,254,253,253,251,251,250,250,249,249,248,248,247,246,246,245,244,243,243,242,241,241,240,240,239,238,237,236,237,235,235,235,235,234,234,233,233,232,231,231,230,230,229,228,227,227,226,226,225,225,224,224,223,222,221,221,220,220,219,218,218,217,217,218,218,218,219,220,220,221,221,221,220,220,219,218,218,217,217,217,216,217,217,217,217,217,217,216,215,215,214,213,213,213,212,212,211,212,212,212,213,214,215,215,216,216,217,217,217,218,218,218,219,219,219,219,219,219,219,219,218,218,218,217,217,216,216,215,215,214,214,213,212,212,212,212,211,211,210,210,209,209,208,208,207,207,207,206,206,205,205,204,204,203,202,202,202,202,201,200,198,198,198,197,197,197,197,197,196,196,196,195,195,195,194,194,194,193,192,192,191,191,190,190,189,188,189,188,187,186,186,185,185,184,184,183,183,182,182,181,180,180,180,179,179,178,178,178,177,176,176,176,175,175,174,174,174,173,173,173,173,172,172,171,171,171,170,170,170,169,169,169,169,169,168,168,167,167,166,165,165,165,164,164,164,164,164,164,163,163,163,162,161,160,161,160,160,160,160,159,159,159,159,159,159,159,159,159,158,158,157,157,157,156,155,155,155,154,154,154,153,153,153,152,152,152,151,151,149,149,148,148,148,147,147,147,146,145,145,145,145,145,144,144,144,144,144,144,144,144,144,144,143,142,143,142,142,142,142,141,141,141,141,141,140,140,140,139,139,138,138,138,137,137,137,137,137,135,135,135,135,135,135,135,135,135,135,135,135,136,136,136,136,136,135,136,135,134,135,135,135,134,134,133,133,133,133,132,132,132,132,132,132,132,131,131,131,131,131,131,131,131,131,132,132,132,133,133,133,133,133,133,133,133,132,132,132,131,131,131,131,130,130,130,130,131,130,130,131,130,131,131,131,131,131,131,128,128,127,127,127,127,126,126,125,125,125,125,124,124,124,123,123,123,123,123,122,122,122,122,121,121,121,121,120,119,119,119,118,118,118,119,119,119,119,120,119,119,119,119,119,118,118,118,118,117,117,117,116,116,116,116,116,115,115,115,115,115,114,114,114,114,114,114,114,113,113,113,113,112,112,112,112,112,112,112,112,111,112,112,112,111,112,110,111,111,111,111,111,111,110,110,110,110,110,109,109,108,108,108,108,108,108,107,107,107,107,106,106,106,106,105,106,105,105,105,105,105,104,105,105,104,104,103,101,101,101,101,100,100,100,100,100,100,100,100,100,100,100,99,100,99,99,99,99,98,98,98,98,98,98,97,97,97,96,97,96,96,96,95,95,95,95,95,95,95,95,94,94,94,94,94,94,94,93,94,93,93,93,93,93,92,93,93,93,93,93,93,93,94,93,94,93,93,95,93,94,93,93,93,93,93,93,92,93,93,92,93,92,92,92,92,91,91,91,91,91,91,91,91,91,92,92,92,92,92,92,91,91,91,91,91,91,91,91,90,90,90,90,90,90,89,90,89,90,89,89,89,89,89,88,88,88,88,87,88,87,88,88,87,87,87,87,86,87,87,86,86,87,86,87,87,87,87,87,87,87,87,88,87,87,87,87,87,87,87,87,87,86,87,87,87,87,86,86,86,87,86,86,86,86,86,85,86,85,85,85,85,85,84,85,84,84,84,84,84,83,83,83,83,82,83,82,82,83,82,83,82,83,83,83,83,83,84,84,84,84,84,84,84,84,84,84,84,84,84,84,84,84,84,84,84,84,85,85,85,84,85,85,84,85,84,84,84,84,84,84,83,84,84,84,84,83,83,83,83,83,82,82,82,82,82,81,82,82,81,82,82,82,82,82,82,83,83,83,84,83,84,85,84,84,85,85,85,85,86,86,86,86,85,85,86,85,86,85,85,85,85,85,85,85,86,85,85,86,85,86,85,85,85,85,85,85,85,85,85,85,85,85,84,84,84,84,83,83,83,83,83,82,83,82,83,82,83,83,83,83,84,84,84,86,86,86,86,86,86,87,86,87,87,86,86,87,86,86,86,86,87,86,87,86,86,86,86,86,85,85,85,85,85,84,85,84,84,85,84,84,84,84,83,84,83,83,84,82,83,83,83,83,83,83,83,83,83,83,83,83,83,83,83,83,83,83,83,83,83,83,83,83,83,83,84,84,84,84,84,84,84,85,84,84,84,84,84,83,84,83,83,83,82,83,82,83,82,82,82,82,82,82,82,81,82,81,81,81,81,81,81,81,81,81,81,80,80,79,80,80,80,80,80,80,80,80,81,81,81,81,81,81,81,81,81,81,82,82,82,82,83,83,84,84,84,84,84,85,85,85,85,85,85,85,85,85,85,85,85,85,86,86,86,85,86,85,86,86,86,86,86,86,86,86,85,84,84,84,83,84,83,84,84,84,84,85,85,85,85,86,86,86,86,86,86,86,86,87,87,87,87,88,87,88,88,88,88
58,58,58,58,58,58,57,58,58,58,58,58,58,57,58,57,58,57,57,57,57,58,57,58,57,58,57,57,57,57,57,57,57,57,57,58,57,58,58,58,58,58,58,59,58,59,58,58,58,58,58,58,58,58,58,58,58,58,58,58,57,58,57,57,57,57,57,57,57,57,57,57,57,57,57,57,57,57,57,57,57,56,56,56,57,57,56,56,56,57,56,56,56,56,56,56,56,56,55,55,55,55,56,56,56,56,56,56,56,56,56,56,56,56,56,56,56,56,56,56,56,56,56,56,55,55,55,55,55,55,55,55,55,55,55,55,59,59,59,59,59,59,59,59,59,59,59,59,59,59,59,59,58,59,58,59,58,59,58,58,58,58,59,58,59,59,58,58,58,59,58,59,58,59,58,59,58,58,58,58,58,58,58,58,58,58,58,58,57,58,57,57,58,57,57,57,58,57,57,57,57,57,57,57,57,57,57,57,57,57,57,57,57,57,57,57,57,56,57,57,56,56,56,56,56,56,56,56,56,56,56,56,57,56,56,56,56,56,56,56,56,56,55,56,55,56,56,56,56,56,55,56,56,56,56,56,56,56,55,55,56,55,55,55,55,55,55,55,55,55,55,55,55,55,56,55,55,55,55,55,55,55,55,56,55,55,55,55,55,55,55,55,55,55,55,54,54,54,55,55,55,55,55,55,55,55,55,55,55,55,55,55,55,55,55,55,55,54,54,55,54,54,55,54,54,54,54,54,54,54,54,54,54,53,54,54,54,54,54,54,54,54,54,54,54,54,54,54,54,54,54,54,54,54,53,54,54,54,54,54,54,54,54,54,54,54,54,54,54,54,54,55,55,54,55,55,54,55,55,54,54,55,54,54,54,54,54,54,54,54,54,54,54,54,53,54,54,54,54,54,54,54,54,54,54,54,54,54,54,54,54,54,54,54,54,54,55,54,54,54,54,54,54,55,54,54,54,54,54,54,54,54,55,55,55,55,55,55,55,55,55,55,55,55,55,55,55,55,55,55,55,54,54,55,54,54,54,54,54,54,54,54,54,54,54,54,54,54,55,54,54,55,54,55,55,55,55,55,54,54,55,54,54,54,54,54,54,54,54,54,54,54,54,54,54,54,54,54,54,54,54,54,54,54,54,54,54,54,53,54,54,53,53,53,53,53,54,53,53,53,52,53,53,53,53,53,53,53,53,52,53,52,53,53,52,53,52,53,53,53,53,53,52,53,53,52,52,52,52,52,52,52,51,52,51,52,52,51,51,51,51,51,51,51,51,51,51,51,51,52,51,51,51,51,51,51,51,51,51,51,51,51,51,51,51,51,50,51,50,50,50,50,50,50,50,50,50,50,50,51,51,51,51,51,51,51,51,51,51,51,52,52,51,51,51,51,51,51,51,51,50,51,51,51,51,51,51,51,51,51,52,51,52,52,52,52,52,52,52,52,52,52,52,52,52,52,52,52,51,52,51,51,51,50,51,51,51,51,50,50,51,50,52,51,50,51,50,51,51,50,50,50,50,50,50,50,50,50,50,50,50,50,49,50,50,50,50,50,50,50,50,50,51,51,51,51,51,51,51,51,51,51,51,51,51,51,51,51,51,51,51,51,51,51,51,51,50,51,51,51,51,50,51,51,50,50,50,50,51,51,51,51,50,51,50,50,50,50,51,50,50,50,50,50,50,50,50,50,51,50,50,50,50,49,50,49,49,49,49,49,49,49,49,50,49,50,50,50,50,50,50,50,50,50,50,50,51,51,51,51,51,51,51,51,51,50,51,50,51,51,50,51,51,51,51,52,52,52,53,53,53,54,54,54,55,55,55,55,55,55,54,55,54,54,54,54,54,54,54,54,54,54,54,54,54,54,54,54,54,55,54,55,55,54,55,54,55,55,56,56,57,57,58,59,58,59,60,60,60,61,60,60,60,60,61,61,61,61,61,62,62,62,63,63,64,64,65,65,65,65,65,65,65,65,65,65,65,65,66,66,67,67,67,68,68,69,68,69,69,69,70,69,70,70,70,70,70,69,70,69,69,69,69,69,69,69,69,69,69,69,69,69,69,69,69,70,70,70,70,69,69,70,70,70,70,70,70,69,70,70,71,70,70,71,70,70,70,70,70,70,69,69,69,69,70,70,72,71,71,71,71,71,71,72,71,72,71,71,71,71,72,72,73,73,73,73,72,73,73,74,74,75,75,75,75,75,75,76,75,75,75,75,75,75,75,75,75,75,76,76,80,80,80,80,80,80,81,80,81,81,80,80,80,80,80,80,80,80,80,81,81,81,81,81,81,81,81,81,81,82,82,82,83,83,83,84,85,85,86,87,87,88,89,89,90,91,91,92,92,92,92,92,93,93,92,92,93,93,93,94,94,95,96,97,98,99,100,101,102,104,106,108,109,111,113,114,115,116,116,117,117,117,117,117,116,116,116,116,115,114,115,116,116,115,115,115,115,115,115,116,116,115,115,115,115,115,115,114,114,114,114,114,114,114,113,113,113,113,113,113,114,115,115,116,118,119,120,120,120,121,121,120,120,120,120,120,120,120,120,120,120,119,119,119,121,120,120,120,120,120,121,121,122,122,123,124,124,124,124,125,125,124,124,124,124,124,124,124,124,123,123,123,123,123,123,123,123,123,123,123,123,123,123,122,122,122,122,121,121,121,121,121,120,120,120,120,120,119,120,120,119,119,119,118,118,118,118,118,119,120,121,122,123,124,125,127,128,128,130,130,132,133,133,134,134,134,133,134,133,134,134,134,134,134,133,133,133,133,133,133,134,134,134,134,134,133,133,133,133,132,132,132,131,131,132,132,133,134,135,137,138,139,141,142,143,144,144,144,144,143,143,142,153,154,156,157,157,157,157,157,156,157,158,159,161,162,164,166,167,169,170,172,174,175,176,177,178,179,180,181,181,181,181,180,180,179,179,179,178,178,177,177,177,177,178,177,178,178,179,179,180,181,181,181,181,182,182,181,182,181,181,180,180,179,179,179,178,178,178,178,178,178,178,178,178,178,179,179,179,179,179,179,179,179,179,179,178,178,178,178,178,179,179,180,180,180,181,182,182,183,182,182,182,182,181,181,181,180,179,179,179,178,178,178,179,179,180,182,183,184,186,188,189,191,192,192,193,193,193,192,190,189,189,189,188,187,187,186,186,186,186,186,185,185,185,184,183,183,182,182,182,182,182,183,183,183,183,184,185,185,186,187,188,189,189,191,191,192,193,194,195,196,197,198,200,201,202,203,204,205,206,206,207,207,208,206,206,206,206,206,206,207,207,207,208,209,209,210,210,211,212,212,213,214,215,216,216,217,217,218,217,217,217,216,216,215,214,214,214,214,213,214,213,213,213,212,212,212,213,214,216,218,219,221,224,225,226,228,229,229,230,231,231,232,232,232,233,233,233,233,235,235,235,236,236,238,238,239,249,250,251,251,252,253,254,255,256,256,256,257,258,259,260,260,261,262,263,264,265,266,267,267,267,266,265,264,264,263,263,263,263,262,261,261,261,261,262,262,264,264,265,267,268,269,270,272,273,274,275,275,276,276,276,277,277,278,278,278,278,278,279,279,279,280,280,279,279,279,279,279,279,279,280,281,281,282,283,284,284,285,285,286,286,288,289,290,291,293,293,295,296,296,297,297,296,296,295,294,293,293,292,292,292,292,293,293,294,295,296,297,298,300,301,301,302,303,304,304,305,306,307,307,308,308,309,310,321,322,324,325,326,327,328,329,329,330,331,331,331,332,332,332,333,333,334,335,335,337,337,338,339,340,341,342,342,343,343,344,344,344,343,343,341,340,339,338,337,336,335,334,333,333,332,332,332,333,333,333,334,335,336,337,338,339,341,341,342,344,345,346,347,348,349,350,351,352,353,353,354,355,356,356,357,357,357,358,358,357,357,356,355,354,353,351,350,349,348,348,348,348,348,349,349,350,351,352,353,354,354,355,356,357,359,359,361,362,362,362,362,362,361,361,360,359,359,359,359,359,359,359,361,360,360,360,353,353,352,352,352,353,354,355,356,357,358,358,359,360,360,360,360,360,360,360,360,359,360,359,358,358,358,357,357,356,356,356,356,356,356,357,357,358,358,358,359,359,359,359,360,360,360,360,361,361,361,360,359,359,358,357,356,356,355,354,355,355,356,357,358,358,360,361,361,362,362,363,363,364,365,366,366,367,368,369,369,370,370,371,372,372,373,374,375,375,376,376,376,376,376,376,377,377,377,377,378,378,378,378,379,379,379,379,379,379,380,379,380,379,379,378,377,376,376,376,375,375,375,375,374,373,372,371,375,375,375,375,374,374,374,374,373,371,370,369,369,368,368,368,368,369,369,370,370,370,369,368,367,366,365,365,366,366,367,369,370,372,374,376,378,380,382,384,385,386,387,388,389,390,390,391,391,392,392,392,392,392,393,393,394,394,394,394,394,395,395,395,395,395,396,395,395,396,396,396,396,396,397,397,397,397,397,397,397,396,396,395,395,394,392,391,391,389,388,387,386,386,386,385,384,384,383,383,383,382,382,381,381,380,380,380,379,379,379,378,379,379,379,379,379,379,378,378,378,377,376,376,374,374,373,372,372,372,373,373,373,373,373,374,374,374,374,374,375,374,374,374,373,372,372,371,370,369,368,367,366,364,363,363,361,360,359,358,357,356,355,354,353,352,351,350,349,348,347,346,346,345,346,344,343,343,342,341,340,340,339,338,338,337,338,338,338,338,338,339,339,340,341,342,343,343,344,345,345,346,346,346,347,346,346,347,346,346,346,345,345,344,344,343,342,342,341,340,340,340,339,340,339,338,338,338,338,337,336,335,334,334,333,332,331,330,329,328,327,327,326,326,326,325,325,325,325,325,325,325,326,325,324,324,319,319,318,318,316,316,315,315,315,314,314,314,314,314,314,314,314,314,314,314,314,315,314,315,315,314,314,314,313,313,313,313,313,312,312,312,312,312,311,311,310,310,309,308,307,306,305,304,303,303,302,301,300,300,299,298,297,297,298,298,298,299,299,300,299,300,300,300,300,300,299,299,298,297,296,296,295,295,294,294,293,292,291,291,291,291,290,290,290,290,289,289,289,289,289,289,289,289,289,290,290,291,292,292,292,292,293,293,293,293,294,293,293,294,294,294,294,294,293,293,293,293,293,293,294,293,294,294,290,290,290,291,292,292,293,294,295,295,295,295,294,293,292,291,291,290,290,290,290,290,290,291,291,291,291,291,291,291,291,291,292,291,292,292,292,293,293,293,293,294,294,294,294,294,295,295,295,296,297,296,295,295,294,294,293,293,292,292,291,290,289,289,288,288,287,287,287,286,285,285,284,283,283,282,283,282,282,282,282,281,281,281,281,281,280,280,279,278,278,278,277,277,275,274,274,273,272,271,270,270,269,269,268,268,269,269,269,269,269,269,269,270,270,270,271,270,270,271,270,269,269,268,267,267,266,265,263,263,263,263,263,264,264,264,264,264,263,264,264,264,264,264,264,265,265,265,265,266,267,267,267,267,267,267,267,267,267,266,267,266,266,265,264,264,263,263,262,261,261,260,259,258,258,258,257,256,256,255,255,254,254,254,253,253,254,252,252,251,250,250,249,249,248,247,247,246,245,245,245,245,244,243,243,242,241,241,241,241,240,240,240,240,239,239,238,238,237,236,235,235,234,233,233,232,231,231,230,229,229,228,227,227,227,225,225,226,224,224,223,223,223,222,221,221,220,220,219,218,217,217,216,216,215,214,209,208,208,208,207,206,206,205,205,204,204,203,203,203,203,202,202,201,201,200,199,199,199,198,198,198,198,198,197,197,196,196,196,196,196,197,197,197,198,199,199,199,200,199,198,198,197,196,196,195,195,194,194,194,194,194,193,193,193,194,194,194,194,194,194,195,195,195,195,196,196,196,196,196,196,196,196,196,196,196,195,196,195,195,195,195,194,194,193,193,193,193,192,192,192,191,191,190,190,189,188,188,188,187,186,186,186,185,185,184,184,183,183,182,182,181,181,180,180,180,179,179,178,178,178,177,177,176,172,171,171,171,171,170,170,170,169,169,169,168,168,167,167,166,166,165,165,164,164,164,163,163,162,161,161,161,160,160,160,160,160,160,159,159,159,159,158,158,158,157,157,157,157,156,156,156,155,155,155,155,155,155,155,155,155,154,154,154,154,154,153,153,152,152,152,152,151,151,151,151,151,151,150,150,150,150,149,149,149,149,148,148,148,147,147,147,146,146,145,145,145,144,144,144,144,144,144,143,143,143,143,143,142,142,142,142,141,141,141,140,140,140,139,139,138,138,137,137,137,136,136,136,136,135,136,135,132,132,132,132,131,131,131,130,130,130,129,129,128,128,128,127,127,127,127,127,126,126,126,126,126,125,125,125,124,124,124,124,123,123,123,123,122,122,122,122,121,121,121,120,120,119,119,119,119,118,118,118,117,117,117,117,117,116,116,115,116,115,115,114,114,114,114,113,113,113,112,112,112,112,112,112,111,111,112,111,111,111,111,111,111,111,111,111,110,111,111,111,111,111,112,112,111,112,112,112,112,111,111,111,111,111,111,111,111,111,111,111,111,112,112,112,112,111,111,111,111,111,110,110,110,110,110,109,108,108,108,108,107,107,107,107,107,107,107,107,107,107,107,107,107,107,107,107,107,107,107,107,107,108,108,108,108,108,108,108,107,108,109,108,108,108,109,109,109,109,109,110,110,110,110,110,110,110,110,110,110,109,110,109,109,109,108,108,108,108,108,107,107,107,107,107,107,108,107,107,108,108
63,66,67,67,67,67,67,67,68,68,68,68,68,68,68,69,68,69,68,68,68,69,68,68,68,68,68,68,69,68,69,68,69,68,69,68,68,68,68,68,68,68,68,68,68,67,67,67,67,67,67,67,67,66,67,67,67,66,66,66,66,66,66,66,66,66,66,66,67,67,67,85,85,85,85,85,85,85,85,85,84,85,84,84,85,85,84,84,84,84,84,83,83,83,83,83,83,82,82,82,82,82,82,82,82,82,82,82,82,82,82,82,82,82,82,81,81,81,81,82,81,81,81,80,80,81,80,80,81,80,80,80,80,80,81,81,81,81,82,81,81,81,82,82,82,82,83,82,82,82,81,82,81,81,81,82,82,82,82,82,82,81,81,82,82,83,82,83,83,82,82,83,82,83,83,83,83,83,82,82,82,82,82,81,81,81,81,81,81,81,82,81,82,82,82,82,83,83,84,84,84,84,85,85,85,84,85,84,85,85,85,84,85,85,85,84,84,84,84,84,84,84,84,84,84,83,83,83,83,83,82,83,82,82,83,82,82,82,82,82,81,81,81,81,81,81,82,81,82,82,82,83,83,83,83,83,83,84,84,85,85,86,87,87,87,87,88,88,87,89,88,89,89,90,90,90,89,89,89,89,89,88,89,89,89,90,89,89,89,89,88,88,88,88,88,88,88,87,87,87,87,87,86,87,86,86,86,86,86,86,86,86,86,85,86,85,85,86,86,86,85,85,85,85,85,85,85,86,86,86,87,87,87,88,87,88,87,88,88,88,88,88,88,88,88,88,88,87,87,87,87,87,87,87,87,87,87,87,87,86,86,86,86,86,86,86,85,86,85,86,85,85,85,85,84,84,85,85,84,84,84,84,84,84,84,84,83,83,83,83,83,83,83,83,82,83,83,83,83,83,83,83,83,83,83,83,83,83,83,83,83,82,81,81,81,81,81,81,82,81,81,81,81,82,81,81,81,81,81,81,81,81,80,80,80,80,79,80,79,79,79,79,79,79,78,78,79,79,79,78,78,78,78,78,77,78,78,78,78,77,78,77,77,77,76,77,77,76,77,76,77,77,77,77,76,76,76,76,75,75,76,76,76,76,76,75,75,75,75,75,74,74,75,75,74,74,74,74,74,74,74,73,74,74,73,73,73,73,73,73,72,72,72,72,72,72,72,72,72,72,72,71,72,72,71,72,71,72,72,72,72,72,72,72,72,71,72,71,71,72,71,71,71,71,71,70,70,70,70,70,70,70,70,69,69,69,69,69,69,69,69,69,69,69,69,69,70,69,69,69,69,69,69,69,68,68,69,70,70,71,71,72,73,77,78,78,78,78,79,78,78,78,78,78,78,78,78,78,77,77,77,77,77,76,77,76,76,76,76,76,75,75,75,75,75,75,75,75,74,74,74,74,74,74,74,73,75,74,74,74,73,74,73,74,74,74,74,74,73,73,73,73,73,72,72,72,72,72,72,72,71,72,71,71,72,71,71,71,71,71,70,70,71,71,71,72,71,71,72,71,72,72,72,73,72,73,72,73,72,72,72,72,72,72,72,71,70,71,71,71,71,71,71,71,71,72,71,73,73,74,75,75,76,77,77,78,78,79,79,81,80,81,80,80,80,80,80,79,79,79,79,79,79,79,79,79,80,79,79,79,79,79,80,80,80,81,81,81,82,82,82,83,82,82,82,83,82,82,82,82,82,81,82,81,80,80,80,80,79,80,80,80,80,80,80,80,80,81,82,81,81,81,81,82,81,81,81,81,81,81,81,82,83,83,83,83,84,85,86,88,88,90,91,93,95,97,99,101,103,105,106,107,109,109,110,111,111,111,111,111,111,111,111,110,110,110,109,109,109,109,109,108,108,108,108,108,108,107,107,107,106,106,106,106,105,105,105,105,105,105,105,104,104,103,104,103,103,103,103,103,104,104,105,105,105,106,106,107,108,109,110,109,109,109,109,109,109,109,109,109,109,109,109,109,109,109,108,108,108,108,108,108,107,107,106,106,106,105,106,106,105,105,105,105,105,106,106,107,107,107,107,106,107,106,107,107,107,106,107,106,105,105,105,105,104,104,104,104,105,106,107,107,108,108,109,109,109,109,109,109,110,111,112,114,115,117,118,120,121,122,122,122,122,121,121,121,121,121,121,121,121,121,121,121,120,120,119,120,120,120,121,123,125,127,130,133,136,139,142,144,147,151,154,157,161,166,170,173,177,180,183,187,190,194,197,202,205,209,212,215,219,223,226,231,235,239,242,246,248,250,252,252,253,252,252,253,253,254,255,256,256,256,257,258,259,260,261,262,264,266,274,275,275,276,277,277,278,278,278,278,277,277,276,275,275,274,274,274,272,272,271,271,271,271,272,273,274,276,278,281,283,287,290,293,296,298,300,300,300,299,299,299,300,301,302,302,302,302,302,301,301,300,300,301,301,301,302,302,302,303,302,302,301,301,300,299,299,299,298,297,296,295,294,293,293,292,291,291,291,291,292,293,294,295,295,296,297,298,297,297,296,295,294,293,292,292,293,294,295,297,298,299,301,302,303,305,306,308,310,311,312,313,314,316,317,318,320,322,324,325,326,327,326,325,325,324,324,324,336,337,339,340,342,342,343,343,343,344,344,345,346,346,347,347,347,347,346,346,346,345,344,344,343,343,344,344,345,346,347,348,349,350,352,353,355,356,358,360,362,364,365,366,368,369,370,371,372,372,372,371,370,369,368,367,365,364,363,361,361,361,360,360,359,359,359,358,358,358,357,356,355,354,353,352,352,351,351,350,350,349,350,350,350,350,350,350,350,349,347,347,346,345,345,345,345,344,342,341,341,341,341,342,344,346,348,351,353,356,359,362,365,368,371,374,376,378,381,382,383,384,386,386,387,387,388,388,400,401,402,404,405,406,408,409,410,412,413,414,415,416,417,418,419,420,421,422,423,423,424,426,427,429,430,432,433,435,437,439,441,443,445,447,449,450,452,453,454,456,456,457,458,459,460,460,462,463,463,464,465,465,466,466,465,465,464,464,462,462,461,460,460,460,461,461,462,462,463,463,464,463,464,464,463,463,463,462,463,463,464,465,466,468,469,471,472,474,476,478,480,482,484,486,488,489,490,491,492,494,495,495,497,497,498,498,499,500,501,501,502,504,505,507,509,510,512,514,515,517,518,520,521,522,524,525,515,513,511,510,508,507,507,506,506,507,508,509,511,512,514,517,519,521,524,527,530,533,536,539,541,544,546,547,549,551,552,554,555,556,557,558,559,561,562,563,564,566,567,568,569,570,571,572,573,574,575,576,577,579,580,581,582,583,584,585,586,587,588,588,588,589,589,590,590,590,591,591,591,592,592,594,594,595,596,597,598,600,601,602,603,604,605,606,607,606,606,606,606,605,604,604,603,604,604,604,605,606,607,607,608,610,610,611,612,613,614,614,614,615,615,615,615,615,615,615,615,615,614,614,613,613,613,612,605,605,605,605,605,605,605,605,605,604,603,602,601,600,599,598,597,596,597,596,596,595,595,595,594,593,592,592,591,591,591,590,590,590,590,591,591,591,592,593,594,595,597,599,601,603,605,607,608,610,611,611,611,611,611,610,609,608,607,606,606,605,605,605,605,606,606,607,607,608,609,609,610,611,611,612,612,612,612,612,612,612,612,611,611,610,610,610,609,609,608,608,607,607,607,606,606,605,605,605,605,605,604,604,604,603,603,602,602,601,600,599,599,598,597,597,595,595,595,594,594,594,593,592,592,591,591,590,576,574,572,571,570,569,568,568,568,568,568,568,568,568,568,569,568,568,567,567,567,566,566,566,566,566,565,565,565,565,564,564,563,563,563,560,559,558,556,554,552,551,549,547,545,544,542,541,540,540,539,540,540,540,541,541,541,541,541,542,542,542,543,543,543,543,543,543,543,543,543,543,543,543,543,543,543,543,542,542,542,542,541,541,541,540,539,539,538,538,537,536,535,535,534,533,532,531,530,529,528,527,526,525,524,524,523,521,520,519,518,517,516,514,513,512,511,510,510,509,509,508,508,507,507,506,505,504,496,495,494,494,493,492,491,490,489,488,486,485,483,482,481,479,478,477,477,476,475,474,474,473,473,472,472,471,470,470,469,468,467,466,466,465,464,463,462,461,461,460,459,458,457,456,455,454,453,452,451,450,450,448,447,446,445,444,443,442,441,440,439,438,437,436,435,435,434,433,432,432,431,431,430,429,429,428,428,427,427,426,425,424,423,422,422,420,419,418,417,416,414,413,412,410,409,408,407,406,404,403,402,401,400,399,398,397,395,394,393,392,391,389,388,388,387,385,384,383,382,381,379,379,377,376,375,374,364,363,362,361,359,358,357,356,355,354,353,352,351,351,349,349,348,347,346,345,344,343,343,341,340,339,338,337,337,336,335,333,332,332,331,330,329,328,328,327,326,325,324,323,322,322,321,320,319,318,317,317,316,315,314,313,313,312,312,311,310,309,309,308,307,307,306,306,306,305,303,303,303,302,301,300,299,298,297,297,295,295,294,293,292,291,290,290,288,287,287,286,285,284,283,282,281,280,280,279,279,278,277,276,276,275,274,273,272,272,271,270,269,269,268,268,267,266,265,265,263,263,262,261,260,260,258,258,251,250,249,248,248,247,246,246,245,244,243,243,242,242,241,241,240,239,239,238,238,237,236,236,235,234,233,233,232,231,231,230,229,228,228,227,227,226,225,225,224,223,223,222,221,221,221,220,220,220,220,220,220,219,219,219,218,217,217,216,216,215,214,214,213,212,211,211,210,210,209,208,208,208,207,207,207,208,207,207,207,207,206,206,205,205,204,204,204,203,202,202,201,200,200,200,199,198,198,197,196,196,195,195,195,194,193,193,192,192,191,191,191,190,189,189,188,188,187,187,187,186,185,185,184,184,183,183,179,179,179,179,178,178,178,178,178,177,177,177,177,177,177,176,176,176,176,175,176,175,175,175,175,174,174,174,174,174,174,173,173,173,173,172,172,171,171,170,170,169,168,169,168,167,167,167,166,166,165,165,165,164,164,163,163,163,163,164,165,165,166,166,166,166,166,166,166,166,165,165,165,164,164,164,164,164,163,164,164,164,165,164,165,165,165,165,165,165,165,164,164,164,163,162,162,161,161,161,160,160,159,159,158,158,157,157,158,156,156,155,155,154,154,154,154,153,153,152,152,152,151,151,151,150,150,149,148,148,148,148,148,149,149,149,149,149,149,148,149,149,149,149,149,149,148,148,148,148,148,148,147,148,147,147,147,147,147,147,147,147,147,147,147,147,147,148,148,148,148,149,149,149,148,149,148,148,148,148,148,147,146,146,146,146,146,146,146,146,147,147,148,149,149,151,152,152,153,153,154,154,154,153,153,154,153,153,153,153,152,152,151,151,151,151,151,151,151,151,152,153,154,154,155,155,156,156,156,156,157,157,157,157,157,157,156,156,155,155,155,154,154,154,154,153,153,153,152,152,151,151,150,150,150,149,147,147,147,147,147,146,146,146,146,146,145,145,145,145,146,145,145,145,145,145,145,145,145,144,144,144,144,144,143,143,143,143,143,143,143,143,143,144,144,144,144,144,144,144,145,145,145,146,146,146,146,146,147,147,147,147,148,148,148,149,150,151,151,151,153,153,154,154,154,155,154,154,154,154,154,154,153,153,153,152,152,152,152,151,151,151,150,150,150,150,150,150,150,150,150,150,150,149,149,150,150,150,150,151,151,150,150,151,151,150,150,151,151,151,150,150,150,151,151,151,152,152,152,153,154,155,155,156,165,166,167,168,168,168,168,167,167,166,166,166,165,165,164,164,163,162,162,162,162,161,161,161,160,160,160,160,160,160,160,160,160,160,160,159,160,159,159,159,160,159,159,159,159,159,158,159,159,159,158,158,158,158,158,159,159,160,159,159,160,160,160,160,160,160,160,160,161,161,161,161,161,162,162,162,162,162,163,163,164,164,165,165,165,166,166,167,167,167,167,167,167,168,168,168,168,168,167,168,167,167,166,166,166,166,166,166,165,165,164,165,165,165,164,164,164,164,164,164,164,164,164,164,164,164,165,165,169,169,170,171,171,171,171,172,172,173,173,174,174,174,174,174,174,174,173,174,174,174,174,174,174,173,174,174,174,174,174,174,174,174,174,175,174,174,175,174,175,174,174,174,174,174,174,174,174,174,174,174,174,174,174,174,175,174,174,174,174,174,174,174,174,174,174,174,174,174,173,174,174,174,175,175,175,175,175,176,175,175,175,175,175,175,175,174,174,173,173,172,172,171,171,170,170,170,169,169,169,169,169,169,169,168,169,169,169,169,169,169,170,171,171,172,173,174,174,175,176,176,176,176,176,177,177,176,175,175,175,174,174,174,174,174,173,173,173,173,173,173,172,172,172,171,171,171,170,170,170,169,169,169,168,168,168,169,169,169,168,168,169,169,169,169,169,169,170,169,170,170,170,170,171,171,171,171,171,172,172,173,172,172,172,172,172,173,173,173,173,173,173,173,174,173,174,174,174,174,174,174,174,174,173,174,173,173,173,172,172,172,172,171,171,170,170,170,170,170,170,170,170,170,170,170,169,170,170,169,169,170,170,170,169,170,170,170,170,170,171,171,172,172,172,173,174,174,174,175,175,175,176,176,176,176,175,175,175,174,174,173,173,173,172,172,171,171,170,170,170,169,169,169,169,169,169,169,169,169,169,169,169,169,170,170,170,170,170,170,170,170,170,170,170,171,171,171,171,171,171,171,171,171,171,171,171,171,171,171,172,171,171,171,171,171
